0.9816855992573709
0.9703497525374548
0.5608669297754335
0.09611001681964644
0.19780902281732396
0.2277654873442887
0.15501325519849696
0.14752654058204473
0.1437583457446138
0.1458876889191513
0.13929378754513533
0.14775372425254052
0.15813925247387783
0.1531902704312921
0.15699046580655368
0.16793681656753148
0.18328478868670967
0.19002970578703732
0.19702012407799438
0.21100363080618986
0.21989067756576994
0.23192873384299503
0.25239968467428675
0.27894614685428915
0.2960287534583973
0.31757368498462574
0.33068184396044614
0.35133495412347165
0.3704593781116311
0.3823478945605688
0.39165422900302727
0.3867137794141773
0.38300797783898344
0.3495801833099444
0.32153072034668606
0.29276415127938715
0.2555845808289549
0.2224414958370901
0.20284941317726
0.19288007165786814
0.18976454488629732
0.1766467824622829
0.17752446473047795
0.17995461928818607
0.17454922222068997
0.1741434102776063
0.16713529119883866
0.1685631976677631
0.17350243040868443
0.17207165742336536
0.16147280795106497
0.16626885449230427
0.1699963581601687
0.1565808339631501
0.14519193942233521
0.1498273363624054
0.15629481873787238
0.15078373487449204
0.13171272209817778
0.1325898332920611
0.1419269482239032
0.13921248305879905
0.1285630167978492
0.12773171674026093
0.12965674473728098
0.11707132713713665
0.11607982781610585
0.12577049554779898
0.12656585033821516
0.1196298975797608
0.126497012507315
0.14078607120909298
0.1452309713572234
0.1398581634336135
0.1402216359195389
0.15222348991032958
0.15981915430894558
0.15621408974993012
0.15186897137464828
0.14533013268208236
0.14423813305386074
0.1318836791209541
0.10175072029483634
0.0863221240467123
0.11039034290775031
0.10420253696280514
0.09486975411993977
0.09961370425236284
0.10170659733032032
0.12967613925784427
0.2559804211242597
0.5520143106311922
0.8730190332048886
0.9997134510262543
0.862842878565824
0.3984840176451771
0.00034136267980294517
0.1536413354951909
0.1640382857681159
0.11149829743239333
0.11431963299665848
0.11144775108201044
0.09718583560795381
0.10191958950852263
0.1170229267934412
0.11779246556317283
0.11970946948862822
0.12326519549195443
0.12981359976886397
0.13937009342431933
0.1430394984942102
0.0005383001787094732
-0.0003489277330508061
0.0010051375475873879
0.0004385153114882362
-0.0011482948464758714
0.0013837682405307692
0.00014372830840732407
0.0004480016846952603
-0.0012355608378392016
-0.0004062155829768052
0.00039517410739602825
-0.0012072706985596885
0.0019012086910943171
-0.00017282870771133564
0.00033370182038563003
0.0014060867757596845
0.001260409567442459
0.001016733528701545
-0.0017918764119688813
0.00033514688340001366
0.001131677659494671
0.0011906569068793926
-0.001476841984650196
0.0012234197991199966
-5.927476699378421e-05
0.0008968212225342933
0.0015013706397325336
-4.863809499041102e-05
-7.698033787607003e-05
-0.0020598904303014004
-1.5403281706660523e-05
0.00048184338321317015
-0.0008940330442892215
0.0004951434112719526
-0.0012603224315786735
-0.0002684613330384966
-0.0013727131392042128
3.672623650068788e-05
-0.0002081798088620705
-9.526226350950631e-05
-0.00015423363932957925
0.0016730367746882358
-0.0007936465864894366
0.0009625189357995679
0.0008481226084879359
0.0004480132728721102
-0.0021191976737933308
0.0005040134757148288
-0.000952300091703451
-0.0010372640771331354
5.451804696093623e-05
0.0008482447760948241
0.00019961380442333135
0.0033684554167018534
0.0017927211949268396
0.00018289504329235283
-0.000338923136171121
-0.0009075077169036997
1.8497170464974353e-05
-0.0007525813953617961
-0.00014769249989084372
-0.00039039220586634967
-0.0001925936103971185
-0.0027077331257636898
-0.0002879123113324449
0.000991767808894848
-0.0016529923230771378
0.001007720637466756
-0.0006259880831525423
-8.312545019182707e-05
-0.0004172991897034633
-0.000274127137383127
-0.00032839454588678643
0.0003295898161138049
0.0004271815006232232
0.00018179390758203012
True
0.9993515914190084
0.9780489215143936
0.7845279101698277
0.3290143302370197
0.13614806273033783
0.21645622467586897
0.20526388640275697
0.12554532960954312
0.10479850823646777
0.09323726070066496
0.11924479732385769
0.09594320878417008
0.12263830785452332
0.10375628803703776
0.11780145921510125
0.11496608120075405
0.12301553115798038
0.10814512308723233
0.13090067171129688
0.11884960636057305
0.12348638178451368
0.11286777072387395
0.13400846205727446
0.13509898038480742
0.12361525196452744
0.12608671489937617
0.1603293379657851
0.15279648571085155
0.16634351084794285
0.15573694522537984
0.17630429475502554
0.16492940527907418
0.17115841184161165
0.15961220523174235
0.18800862910715116
0.17214779368565014
0.1634625103293484
0.15778474672599885
0.17350390763623655
0.1531918601961187
0.15505334245573066
0.14231289565856226
0.16767999645984316
0.15751591282864538
0.14046219835010923
0.12935943436160424
0.1403731472194045
0.1277676539447714
0.11932163452346567
0.1033175740558184
0.1121873866384654
0.11960475137023399
0.11178751303085582
0.11134347462451878
0.11943405085024632
0.12352782130923433
0.11881360943240653
0.11680092358753481
0.1225147184486293
0.14170915770125309
0.1432828557462175
0.1452879897294747
0.18976585705191273
0.21015006303911982
0.23068641125697137
0.2174224070197482
0.24137287183258108
0.22556119310175404
0.2135186233862718
0.1751186068734191
0.19466859884279608
0.14140020380615695
0.11451869405716916
0.092123681620905
0.11120971355417084
0.10247337098805173
0.09970807894597446
0.07671691941362979
0.06454806394075527
-0.0004182563688957796
0.04244505869204134
0.30766282614687007
0.6384657858877839
0.8920235293652212
0.9809377792919021
0.9296561070032403
0.8114828226107268
0.3876955660312603
0.09918560841034942
0.12771209773133949
0.15750527529963065
0.07195194946881554
0.04427115534258073
0.04368153355344919
0.06574058661799566
0.07520220210780615
0.06816675868660661
0.059074337450778516
0.0661708134631174
0.07149479859676446
0.0614951531173461
0.0008916028938223063
0.0017500277216303912
-0.00016628995009354477
-0.0008275287945363628
-0.002425204639503141
0.0015180224417096766
0.0007654425234035568
-0.00038876407926640425
0.0005246984268688208
0.0006225582473648536
-0.0005458443167355458
0.00024834097619904055
-0.0008869287330738552
0.001301536495955213
0.0016044484307895905
-0.0011370474155006653
0.0008158888912642503
-0.0003328755262007315
9.113910501701555e-06
-0.0008211604774424244
-0.0023141857856111706
0.0006847137878942307
-0.0003732840444056421
-0.00042541948743603377
-0.0003445958249433946
-0.0024974972165707787
-0.00036845934838896006
3.18902238395965e-05
0.001096937742763396
0.0004422980118161697
-0.00019862582371488305
0.002003709014436701
0.0010895066250055662
-0.0018788913969818774
-0.0015587609427102473
-0.00038798954965057607
-0.00020867305164761897
0.0003376743198181182
0.00024886457163808345
0.0010058296320635087
-0.0008945543406564446
0.00014505193271280049
-0.0004706716269078098
0.0002400087513291359
0.0011341211978861546
0.0003675976125503226
0.00045918277877159076
-0.0011769965425914943
0.0011605198439192423
-0.0013144678768157504
-0.0018475329597231961
0.0023497111881776093
-0.0019498046594353664
-0.0002759857363762076
0.0005100728452782092
-3.693796975313708e-08
0.0011831106654006337
0.0007872047991666765
0.0010741142757572384
-0.002340773833489129
-0.0005229206156086542
0.0003641911607666736
-0.000626855760130991
-0.00013556109558291544
-0.0008481834786602229
0.0008889446575543306
-0.0008151673248904995
0.0014032950129004974
-0.0010579444863771082
0.002026810258297218
0.00024480849059332763
-0.0003438044634639231
-0.0003295137031815215
-0.0006234712743922119
0.00046888226010892816
0.00111765887607187
0.00021097650680193273
5.259893414315888e-05
-0.000713864736126375
-0.0010697569510179016
-0.0006835705249941273
-0.0011998417886520468
-0.0004717313441608789
0.0013714947258325813
-0.000300268993267599
-0.0008346315269996274
True
0.963570222772645
0.7881043971017325
0.14409106586485038
0.0009333989285129306
0.07024247569373193
0.08665927602942913
0.04542914510010037
0.08607669877028695
0.14561296990144545
0.09741169217800318
0.11347655306630999
0.18379982662240366
0.2257153448364698
0.3469073501960086
0.4216864379399618
0.3933877346780834
0.41065827973508545
0.4174431751375119
0.47691296155411705
0.4907762987552122
0.48087176377127977
0.4700145285742759
0.4850579890252143
0.5036325456281343
0.48061853354391937
0.4871745698465186
0.5070756915135624
0.5194502333621154
0.5080798572496347
0.49125970123083007
0.518828257352702
0.49795436046728064
0.5035121414924204
0.4934179245382435
0.5231492689285626
0.554583847648489
0.5457812257795445
0.5553635378275522
0.576726049518216
0.535870872958783
0.48400392915539264
0.43246675227985665
0.3850829108312391
0.29230318152804585
0.25920452970692653
0.2684575631596982
0.31591571664484785
0.32001280254161507
0.27468276891779947
0.30660004713317146
0.3192208404866145
0.3902150995506766
0.40967852260056403
0.41052638483160886
0.4105103501193817
0.41588180964388227
0.4222833258806165
0.40997573251618075
0.41519220377450816
0.42719517951978636
0.3845785472578625
0.37918134465531594
0.4100229173209341
0.43834071198589086
0.38444398066512125
0.3412969506373502
0.3518502063935622
0.3352672220480805
0.30669589894006
0.3082066674954587
0.3245918859747177
0.3248850816459932
0.3028542108434413
0.2827353760239452
0.2979109566201491
0.2828831373680617
0.2702414135869812
0.2707079489512536
0.2723185232246657
0.2529531954502078
0.20696658141633673
0.3356920145098783
0.398447095265918
0.44909028222088904
0.5123471857829749
0.7283283281044811
0.9987082833962716
0.8313874211748533
0.18342527970087427
0.027743973833818075
0.16125536700164408
0.1737165208089027
0.14192111107163885
0.24281258259530153
0.24813708701784337
0.2043145746154128
0.23187399714747536
0.29211104878913613
0.36670659402094685
0.39414343935824514
0.32946504589628733
0.2927138585788642
0.3138119581696965
0.3144675345400889
-0.0013520588346461807
0.0006868227609301677
0.0006231150612911267
-0.0002579457630437873
0.0004209070578070818
-0.0014682464248017653
-0.0010103614446597933
-0.000477657880505985
6.338788797871056e-06
-0.00021462009161486625
0.0008852775297256494
-0.0007384443263019649
-0.0007618322914781314
0.0001571292800731958
0.00015351394295362873
-0.0001459936469004784
-0.0013352581821812752
0.0022840596860817567
0.0007048366858774795
-0.0021381954802870704
0.0003960598427201435
-0.00029662189127835424
-0.0016053423776257434
-0.0003054219162794111
0.0008628594183526915
0.0009407998478871888
-0.0007364871316992599
0.0013837688267327823
0.002580997369285003
-0.0006041464972441711
0.0014291313637326314
-0.0013725062004056791
-0.0002901412610133078
0.0002821500069140859
-0.0006303029886504338
-0.001959207666426557
0.0001269533501046385
0.0002128444629899253
-0.0005248629246612402
8.51123391964275e-05
0.0006246461210478442
-0.00044739373912330036
0.0010451921266822707
0.000661233215467592
-0.0014701548041471453
-0.0003947784143572411
0.0018605049322287074
-0.0012971590746999016
0.0008622078561418709
-0.0007101241998755474
-0.00025558044313957613
-0.0020763779445667685
-0.001281103934278174
-0.00029346312531802445
0.00021519774249264498
0.0008429173908749472
-0.0018254334528039352
-0.0012937414460563463
0.0020622291772739052
1.3945247768069131e-05
-0.0008855949123938856
0.0013139542743841966
9.901468132625398e-05
0.000557262782665319
0.0006140040143724955
0.00018865047244222106
0.001697763988306541
0.0007530639279980633
-0.0014460009643320034
-0.0018295631475967055
-0.0007783950037384869
-0.0007108777765897754
0.0006260499814030402
-0.0005020845262476417
-0.0007855389471647334
0.000282983711628479
-0.00023662466763811103
-0.0007427268629725313
-0.0012188671569624884
0.00012830990412248454
0.00042501419113560396
0.0024560483989415527
0.00013687699326119987
True
0.9710418441865946
0.9148406052306878
0.8460563145422164
0.7041850681636528
0.6104867125204838
0.3401285255926496
0.1004068420765902
0.006028531130268912
-0.0011674981868244284
-0.0010887493096015189
0.05267950656732447
0.08633960689265631
0.08473279118889368
0.13226776320949946
0.19400927067175258
0.1873477929352763
0.19284877753622828
0.17481420578888782
0.2325131497976284
0.1655470979377597
0.16634385325589449
0.1801127218392095
0.21087921564115022
0.18797741729948067
0.17632086470658942
0.20709475571322128
0.2267858195153498
0.19641867018974804
0.24652088224534133
0.26214203985655093
0.3187276952879376
0.25840406759058643
0.32567270547506627
0.3590334482597388
0.3632158380106397
0.4142121649727237
0.4144550941769278
0.4762577183617678
0.4667635390236698
0.46245087405936786
0.4927848465110548
0.5090003353323461
0.5327684192481401
0.4924681461001767
0.5161242749502298
0.4958527659214844
0.5562838252798188
0.5115616701437535
0.4823372842970366
0.49850718173086
0.5030491863115861
0.5009542777338251
0.5032716347941715
0.4969562898661303
0.511227845094029
0.5121569534626592
0.4482811444228492
0.3731885110448967
0.3279951616872721
0.3319925768876876
0.33969687372655183
0.30710269503850673
0.34718750904619267
0.3361178360257449
0.32703842335908806
0.30609380329930147
0.33317286563274867
0.33565606064809095
0.3419313840011323
0.3217528554055621
0.3652149829726514
0.35218197218830766
0.3342515035936476
0.30623866037141007
0.39859568073063567
0.618849916595044
0.7233048427479505
0.8042795356150628
0.9757605705969702
0.9915324651676819
1.0012801132497386
0.8474438177598278
0.7716219218602542
0.6571093754717846
0.3881528873371351
0.1530348582618187
0.04537622912377446
0.007716823376200577
0.011382094081210856
0.030562808827736175
0.07477461678461426
0.11247232969330026
0.15926241775000663
0.18025312216313577
0.23944353595950954
0.0008366357394238373
-0.00048606051592094406
-0.00045976664408110704
0.00020722361382829945
-0.0008885032076120509
0.00013785569947292404
0.0004744631102267791
0.0019024720911931365
0.0002590175224475838
0.00030905386814143585
0.00042298883950559716
-0.0007358504520612356
-0.0001922525153369193
-0.0002606431017564854
0.00019451193631712474
0.00080763680035983
-0.00011620585367015291
-0.001463673672093114
-0.0003276747929663156
0.0005151513786078353
0.00031136544124660314
-0.0007706386137486982
-0.0014360021572988094
0.00020223791210361531
0.0005255262565733731
-5.6950842679151375e-06
0.00021320311573027494
-0.0021751185784098545
0.00016440374383639816
-0.00039158109496278823
-0.00010477591809342205
-0.0008429112497006189
-0.00028087084230563904
0.001685898175288566
-0.0005386321870597736
0.0005915785047815278
0.0005620296996545907
-0.0006929373192447694
-0.0010250077677924374
-8.910852680094723e-05
0.0013015262539775097
0.0010835343024792104
0.0014680859738071443
0.0007600556521299073
-0.0017884051567008945
0.0006131715133362348
-0.000787672246468784
-0.0010526454132495653
0.0003735412478736908
0.0009779778934278563
-0.00033827229087685177
0.0026009339680717024
0.0004479482549696077
0.0009043748288077766
3.0484058502952552e-05
-0.0027160182169965246
-0.00115646579395694
0.0006397671207352043
0.0012323396946636615
0.00027831844881462517
-0.000963634140509524
-0.0015323154181186933
0.0012104632446499038
-0.0003271786179940574
0.0019618802904013987
1.6975476352993098e-05
0.0022450524449790375
-0.0011080080710693914
0.0017062574221335816
0.0007571086293531601
-1.8590838722197044e-05
0.00039589029675662424
0.000731969192133218
-0.0012404872278303117
-0.001333251088790378
0.0008201024453999584
-0.0004468197095609325
-0.00011475196170504848
-0.0002969941798697439
-0.00047852337436703684
-0.0010064242967640904
0.0005242431273411019
-0.00018242643114969021
-0.001226852796897261
-0.0016329675385764295
0.00030918635139008503
0.0003936405948136449
-2.685155488256394e-05
0.001388495058576415
0.0011007241312917496
-0.0012925115582239697
-0.0004578834457596285
True
0.8381581103105397
0.6191868503812346
0.4020304818368761
0.16990241099992884
0.0334775345217185
5.2546231912410575e-05
0.02163441640678439
0.07235599666851832
0.09724896821803025
0.10967150998879599
0.11459600770359349
0.09852758577931989
0.13738654364781877
0.13680285443589824
0.16589479583996938
0.17163300053943556
0.208123856544541
0.2119501131512194
0.2581890114045319
0.26572433465886913
0.29935129842177477
0.31943536809631057
0.3840658492462417
0.40006154919637055
0.4459207417029051
0.4737061779198304
0.5116942605536581
0.512179027222723
0.5664406542801216
0.5767648464916054
0.62785119354543
0.6125748050462626
0.6058691072080954
0.5481415336213453
0.5151793526079432
0.4672135447808074
0.42397810693692894
0.36832233474176995
0.36481139322636963
0.34118184135432705
0.3607347184796069
0.3165616208713931
0.30862565486467347
0.31345728460575145
0.33410514205279035
0.3460247870298388
0.33922692230291485
0.31548860572383935
0.3312737862386364
0.3387620732422746
0.3457494854902355
0.3452663792416539
0.3721974450971738
0.35845008336879824
0.36353363469947864
0.3531453258350238
0.3759337757041056
0.3618317523435084
0.3576303800841804
0.3504187925992728
0.3679129320725053
0.36226318196548485
0.35799195083384616
0.3382297460665055
0.3518646475136956
0.3376536826614202
0.346572422215716
0.3312989638558047
0.34827454847240746
0.3454729850229633
0.36398475311096246
0.3569493439594453
0.3704993377197515
0.37512817233229
0.4098109709540047
0.3845247343575881
0.3942800783593813
0.3566349948111603
0.3589319169329142
0.33975707914091774
0.35285002349482425
0.311714991084987
0.3414271587122883
0.3000144755220695
0.3191857986122439
0.3118097179476798
0.3063793787702134
0.29711862264671257
0.306624919242515
0.29832802824343607
0.31272224602190873
0.3009658142197145
0.32007816450975135
0.2984857372285171
0.3009658132777667
0.3032701507167156
0.32395136141914904
0.3123770360020569
0.3690194309155861
0.4248216809317683
0.5914379023969167
0.6349098616720842
0.5259175449416027
0.4948761340105282
0.7670932467156606
0.9984701717659117
0.9278257135419906
0.7003287093665685
0.49955614288174516
0.23518669401473183
0.14968478710807678
0.21890199431532983
0.2778057782027477
0.2754693834363253
0.27969773371847606
0.2850715154241934
0.3016691733663235
0.28142265097954694
0.3067568383316537
0.3153048882444809
0.34181701993217933
0.3400290380866333
0.36497938506715494
0.38012231403502883
0.41301032537061777
0.3989501624442948
0.0003132594257950433
-0.0005689991070104237
0.0011817209145594967
0.00014079968037311732
0.00035860069624623324
0.0028910791043057753
0.0001344024534069833
0.001584937978645053
0.0015561025112483917
-0.00021706705371342196
0.0003938882865353429
0.0004799566460601114
-0.00185330384074489
0.0009712732003313579
0.0012398167731711798
-0.0003452394081368885
-0.0014269318358341263
0.0004864768999240711
-0.00033919838685465446
-0.00031073839663063786
0.00033451182181269944
0.00026823393464025456
-0.0003748205912257606
0.001264202159509313
-0.00047599612053377937
0.0012520932079660729
0.0008912191802902188
0.0006596613334272235
-0.0007574281811194559
-0.0004904580716786874
-0.002200442257490241
-0.0005192379282378438
-0.0019496306341223258
4.541140446452499e-05
-0.0006567122542760106
0.0011141420880081058
0.00011472345504804843
0.0011334165968829102
-0.0003621356322959925
0.00019693864963555237
-0.000720107891415468
5.997950288342871e-05
0.0005185928842036081
8.616331105750551e-05
0.0003703435954202304
-0.002079980588824362
0.00020301657237404148
-0.0007394871247212027
-0.0002634004632593041
0.0015478635499946093
-0.0003384016263741186
0.0015752042067894842
0.0001701635214229696
-0.0008224888466040626
0.0018978806039063828
-0.0019160621240225364
0.0013820551968231922
-0.00024235243609284376
-0.00030664171547818263
-0.0010500924458034671
0.00037643242176367244
True
1.0002691190729962
0.4976357333054904
0.4698557844987598
0.4926202484157839
0.5228114418796437
0.5307779207292107
0.537671938123561
0.5548105838668602
0.4953134887932335
0.3638876497042517
0.2332330984117221
0.10114832662634911
0.09942240489544475
0.1412287551286722
0.09814423617093992
0.08128236401420735
0.07947262636776585
0.08789300878298972
0.06441367727918798
0.050975803322556426
-0.0016388563245375186
0.03703533996449407
0.015546463256553211
0.0338493056551036
0.019099840391130957
0.030614732941942918
0.03577194834612075
0.03950511924326131
0.02246538834431521
0.040511827689251496
0.02720936268171721
0.049499715188840346
0.03835100392776508
0.05444621181282443
0.06363557160584817
0.07441139713821898
0.07294976453589287
0.10158704637381333
0.11538805673448987
0.14458787540171092
0.1564383222404213
0.18750685650001644
0.1943196515149047
0.22184670521806832
0.2179166284785991
0.2525893873081283
0.241527450121577
0.2444786085593853
0.23035302925364284
0.24438942768148
0.2182126294591203
0.2207165007099332
0.20307098819455732
0.22181178763377546
0.20184491733744991
0.21718697135457746
0.2090209901823829
0.21439055098192786
0.1951077524624143
0.20010457240568044
0.19448378766923585
0.20444844184039648
0.19906781202528878
0.20733491618942587
0.18852718703180524
0.22151070752565324
0.19676632168925998
0.20843879775182655
0.19802530765052478
0.19847376583155255
0.18473107365314523
0.193481180881164
0.18353905692039776
0.1921432432133105
0.16846091348973907
0.1762568540447847
0.17161759465656065
0.18554159578505858
0.1739770553472764
0.18793901720854048
0.169273439467267
0.18720410491390396
0.16825707611043378
0.16641048522449722
0.15664667176249158
0.18012213200264535
0.16053726498141208
0.17331506154201917
0.14153892565488477
0.17623333066527425
0.15771255538883075
0.16934618759705106
0.16766149493188207
0.1699268277154355
0.15053568600896405
0.16959046192478572
0.1795046957201231
0.1940381855556325
0.17500622240610095
0.18774756235678386
0.18229278302290336
0.20701349253882984
0.20731786243917644
0.2802804693131943
0.6641318898716634
0.8279799479103737
0.5012028394885586
0.5316084768169979
0.5412340761544808
0.5605892561130559
0.541475364035618
0.5721213094345667
0.5109764967175968
0.4172084734305206
0.29884330207990556
0.08422379368382632
0.018543445628033114
0.07151694604370823
0.019015919054638824
0.05829232531082655
0.09548991989047931
0.11458886536182279
0.14340500850287932
0.12496521794269234
0.1253083650148789
0.00032256096875275776
-0.0015871430228275635
-0.00022344661692109218
-0.0011941184356836203
-0.00038193670301245433
0.0004553126294465455
-0.0009345859081608362
-0.00027138646022407395
-0.0006636742893973913
0.0011966282053914195
0.001681321139863397
0.0009488838611041452
0.0004736140502617535
-0.0008049261805161939
-0.00036853489987825124
0.001446905059167801
0.0027337042927374896
-0.001284026316439762
0.00034290604244760194
0.0007646680805819042
0.0016412926138413093
-0.0009320517981418418
0.0004731552981636929
-0.0005681383973496641
-0.0005064254396350509
0.0008203484137087061
0.0004185659405815983
-8.137387332362821e-05
0.0017636367715748867
0.00018701551434959353
0.00016950524704692445
0.0006064376897840013
0.00039946285320793736
-0.0013024819602728706
-0.000506061609628228
-0.0017700492622444361
3.708710722553907e-05
8.731526619467392e-05
0.0007772386493264157
-0.0018047146743504884
-0.0015642937420743016
8.965894696501045e-05
0.0011928047314704229
2.929838463587712e-06
-2.8418572044953424e-05
-0.0010217007337354723
-0.0005448612181907401
-0.0007341727668113928
0.0013765111453437394
0.0004698430398953556
-0.0005612729291396289
0.0007589535153310863
-0.0007173886938024744
0.0010088988139953857
-0.0004566149212808205
0.0008855370461588093
0.0007087148901312714
-0.0015548109708786633
0.001229528475310581
0.00029370863023314903
-0.001205126412401331
6.0453789166396706e-05
False
0.9995564797278748
0.5328748234117952
0.13065616360361273
0.17161321652732314
0.10752605626704642
0.062245249695134695
0.0821369473971792
0.09997314869946657
0.1479259405375653
0.1713552115271321
0.20904594608653967
0.2373776234135773
0.25479025576324243
0.26605294636799637
0.29903511298594687
0.3056907269623553
0.26331333284128944
0.19327851475490626
0.1767459423677233
0.147180252767686
0.11784173069682476
0.10486336745178118
0.10489521043932491
0.08783836189154419
0.09344497578643235
0.06796450483266046
0.053945143714809664
0.03748022165489044
0.016726329906051742
0.02196755803086291
0.020768264627590113
0.03509748939179534
0.06644122847637618
0.11858649096523743
0.19808368378465532
0.252486378374633
0.22251461139923
0.20061718777113224
0.21429845836964231
0.2102762027722888
0.1986886283808436
0.15348065630571328
0.10832488276968408
0.09546428783636236
0.11766195347267333
0.0991297871789067
0.06717007923765658
0.0004263579592230859
0.3819450810869898
0.8609914556592047
0.6641326189205783
0.11408309063793035
0.15457845097161116
0.15903652649725455
0.11514261029499327
0.09320141690981673
0.10399920437465779
0.12091754784517052
0.13045384115638703
0.19764753402278257
0.23858939248056554
0.2904876930728941
0.3104981664838544
0.310481240692334
0.3321653460243668
0.29764156169742995
0.22991779285510228
0.15944243345026976
0.12978020126794768
0.12558301489738383
0.11353174928968375
0.11258702032207663
-0.001019913570403053
-0.0012148260686379781
-0.00020162291189076157
0.000357838656448445
0.0014547558498065691
7.27612330763438e-05
-0.0016261417127194481
-0.0009387002435547276
-0.0005014536822463354
-0.0006920775846123416
-0.0007025885008659637
0.00026270262265982227
0.0006855487398259178
0.0007167661112920407
-0.0011493520185458244
0.00016755338898618305
0.0001233289993038272
-0.0004141222558262738
-0.0004605293355635183
-0.0005338103727237239
-0.0015396605230506696
-0.0007777453483965569
-0.002482240649601434
0.0009529133723447387
-0.0006224483434750264
-0.0008634474891971183
0.0013138524014292203
0.00012605593637523177
-0.0010077251617426994
7.975875775763826e-05
0.0001419413963133718
-0.0007928950149104753
0.0009350848148699842
0.00011330566882015665
-0.0007007057438604627
0.0017690925300974235
0.0005426289748629089
0.0008646130088663265
0.00017204512162484072
0.0018290417939838403
0.0005448496289930546
0.0004309795717016556
-0.0016688915739033583
-0.0004524561815361219
-0.0008655419493269206
-0.0007510256304828943
-0.0004632019217229991
0.0013861542997330393
-0.00029405472933805455
0.00112538560254358
-0.0006256549197655135
-0.00020011048079526483
-0.0012889773402541143
-0.0011501437804174923
0.0004661516044494487
0.0012111166071420692
-0.0005326907337522106
-0.0010068381374807361
-0.0001456464730371428
-0.0004917028852175202
7.201694265332729e-05
0.0020909107843620676
0.0014831759582898587
0.00018210291757962945
0.000867756635790509
-0.0010158673425307812
0.00015309503256639162
0.00041546838998121274
0.00046506739140263415
-0.0007082800692512746
-0.0006502251127646603
0.0012192399716596297
-8.613358425753929e-05
0.0002480735818444463
0.0009104089434782719
-0.0007982491309489475
-5.0819451725532674e-05
0.001380614628620561
0.00036452835811144206
0.0006775436113728795
-5.4267525659896e-05
0.0002489073690984327
0.000552124892785387
-0.0005472140783289223
-1.4669149273662554e-05
0.0002989345243170291
-0.000822963838638021
-0.0015648209682867793
-0.0003161386751470153
-0.001377627841284722
-0.0001434287983923102
-0.000627477961992038
0.0004571090421572918
-0.0007938877478367037
0.0007263629845111094
0.0012807435844628882
0.0008405900913598924
-0.0006211365937063367
0.0004502355063335262
-0.0010641658295867562
0.0006145512707889417
0.0008935485426963088
-0.0010517087678234623
-0.0002977454738555389
0.0009515567513584146
0.0007456515656385609
0.0009529921506651266
-0.0010510905643471569
0.0010162031201308523
0.0013937073371766897
0.001351618095694666
0.0009449305965062698
-0.0003189758105492007
0.00028389048175122433
-0.0007645623184981492
True
0.825727722024221
0.7951634313005352
0.5767370643646483
0.36521615314765343
0.15081880879145204
0.08822705129133997
0.07253317825316354
0.05548878585771062
0.04310314047169726
0.022046914697106502
0.019631993400969074
0.014172689879264209
-0.0005354466708861187
0.007080041067275363
0.01476573653979266
0.015854868355208798
0.028004948789395974
0.035396431122173
0.05155956826783722
0.06440602896053095
0.06298811167460651
0.07744675708924047
0.09009353396172888
0.09643435460004718
0.0977706128003649
0.11337256178750182
0.1344217427263563
0.16457604137412857
0.18181859537327189
0.20363190257989555
0.21904067701749075
0.21237623936650366
0.21304940062677935
0.20936197475760104
0.20717295947459471
0.20485428828501082
0.20740568554355682
0.2119592649469557
0.21399188455026505
0.20763966707147782
0.21029569492974734
0.2088208753297908
0.19880595263977685
0.19648457600843808
0.1985276102891904
0.21436295681283693
0.21870506253415356
0.21631533628884997
0.21788902512522781
0.22022506957128699
0.22129735378440743
0.2223165731013874
0.2225080906168539
0.22134451295737725
0.21603898751892
0.22525471823115714
0.21149000004591573
0.2240211062154248
0.22398236289120377
0.23001654060571042
0.228151694376107
0.22464056599651416
0.23563901627556627
0.24236710903006303
0.24407411938461698
0.2483054922480083
0.2602901245540689
0.2634970282264312
0.31662432643309035
0.452396835854362
0.6213090179639965
0.7685921915635174
0.9279720722736716
0.9999897068289565
0.9983579637535352
0.8824623170294331
0.6576742096827028
0.4376823158707009
0.24222860026399018
0.19293016402573884
0.1741151390820247
0.15372006275076483
0.13656918205328428
0.1470856566019037
0.13329142844530537
0.13660246109467739
0.14132338301767325
0.14674414874591837
0.1487295065869495
0.17507196749383816
0.18151812312547747
0.1904543147607905
0.22298005821552233
0.24836602320590653
-0.0007867542118257612
-0.0002653558404925367
0.0012286753153449167
1.3626794536234555e-05
0.0009573377948096469
0.0016272627746291965
0.001307897210929753
0.0003486765325202563
0.001231212980298028
0.0005497581206974946
0.0008734717329933721
0.0006383092375562962
0.0004786174193935631
0.0005473975139071189
0.000325193261184897
0.0013654980626987595
-0.0011626873734182786
0.000971962042340992
1.6466671093257555e-05
4.764078488281537e-05
-0.0001368747141132525
6.911545209038634e-05
0.0011164362413482007
-0.0007585445122873745
-1.4708538730371896e-05
0.001527531571036428
-0.00040967890118313996
0.001710354133632055
0.0012305438063558117
0.00017605546268967636
-0.0015563020599574024
-0.00010295584083637867
0.001334047085455934
0.0017722271056405563
0.0012183886812653158
-0.0011913561497907037
0.0006149639459162526
0.0011013196720770896
5.951736114173315e-05
0.00039150708416882694
0.0013118335848191457
-0.0008595635928753164
0.00026714086012801186
0.000733772863570935
-0.0005438923464781582
-0.0005086166534758598
0.0006232116394262879
-0.0013176150286516608
0.001630532933611193
-0.0008256162295627439
0.00042998727693238046
-7.299976127973367e-05
0.00032525662753635475
0.0011220952869213322
-0.0004143178529269619
0.0009165545590085084
-0.0006433137496827989
0.0007448860235625327
-0.00014403893266113588
0.00043651293661949936
0.00017085946366331693
-0.0006706672493412662
-0.00010066604761445375
8.858357384585845e-05
-0.0005756181281521673
0.001716293970694963
0.0013204101639027956
-0.0008703023335869469
0.002327211833255263
-0.0015422106592512847
-0.0008717460407303523
-0.000670273455981742
1.2072484744714745e-05
0.0005896898644415442
-0.00023605650356894753
-0.0010123241334724145
-0.0008931068139229883
0.0005540563289726882
-0.0007842011433984294
0.0002585183383403455
0.0020053292236817677
-0.0007731537642290902
0.0006443590203860398
0.000850958809177624
0.0018721626314580741
0.0014304565876357114
-0.0011033277447780633
-0.0008290695680261161
0.0004923042222229106
-0.00040783693410012957
-0.0005084231995322691
-0.0007338679981512545
0.0012915040389430532
True
0.9992977564050292
0.9194480425184541
0.4546841676210494
0.1381239446806427
0.2959195795114136
0.3677759729871405
0.3259492247478676
0.3243002124822216
0.3185060999496094
0.31166158532597277
0.3192490886371122
0.32281334883229734
0.31938303552265623
0.3216616860332023
0.3304862716909238
0.329463652663511
0.3293830377616253
0.3280203198413553
0.3444544517090938
0.34826870652843556
0.3498413749226931
0.35314978567397814
0.36007204591263126
0.3642463717542719
0.3641365137318711
0.3676818558041041
0.3757812001353144
0.3779335748444305
0.3635708021603192
0.36519599835200206
0.36425548204471275
0.35923668497685823
0.33694128272321083
0.31612507982880095
0.31262837791823544
0.29746734749488063
0.2828375708223779
0.2749800986277169
0.27577625984594634
0.27806714366641444
0.26813752144354763
0.2637474021805799
0.2723268106083112
0.2764006889391488
0.26391007659682725
0.25591198832449075
0.2637648126580224
0.25968991110062767
0.2539793693482063
0.25323728362454306
0.25149904167185244
0.24466695954586945
0.23456155126616934
0.23398051354479768
0.23265466546890573
0.2298399363543153
0.2187122625238404
0.21428625411564206
0.22167307209725348
0.2278983289744223
0.21588409731823593
0.21140356905319693
0.21472615513527452
0.2149454055891719
0.20883684414509035
0.20578427817947986
0.22752481719217896
0.23499185627038072
0.23200758218801829
0.23180078363512793
0.2442121965002746
0.26299714444443056
0.24398328466721733
0.23062026166880104
0.2325514878029747
0.22887547151488288
0.21321317881508123
0.191823325729113
0.18839389989671648
0.18918811249881884
0.18556228080299045
0.1856436941348373
0.19325292198084051
0.19183627293994826
0.25497275586836854
0.4211988319319001
0.6499986714129073
0.7892240982232329
0.5881997853434692
0.11921832074767705
-0.0005016371009351438
0.16838663423243344
0.21487095148116248
0.1907033230651015
0.18968522208460648
0.19789828739951146
0.1901273315582026
0.19288029059470158
0.20631165521689265
0.21152644645347934
0.2076380181029403
0.21121281171820702
0.21782489205086702
0.223782004638474
0.22253156261822668
0.00010428197601445091
0.0011036105341177438
0.0004166511755351234
0.00012866001414867854
-5.291026613652676e-05
-0.0007927308371774616
-0.0003443036868726271
-0.00043536037158505144
0.00041230066817219313
-0.00038913026077341757
-0.0016676594191209941
-0.001127877034485618
0.0008281931466976792
-0.0019926710790034666
-0.0011079004456089725
4.184990457913891e-05
-0.0016881968943799417
-0.0016301154546525965
-0.0009034051301623285
-0.0006519937609915937
0.0018655665405486743
-0.0017879245783929715
-0.0008150407207586918
-0.00014832692736781788
0.001720979821486109
0.0005895694433789954
-0.0008514364711627698
-0.0005757273457048055
-0.00017157507797526257
0.00081748456374706
-0.001753271542134592
-8.57289551025316e-05
0.0010015474446740794
0.0003146392369361528
-0.0003941454417008018
-0.0011971585410545406
0.000625573691460973
-0.0003100105217406009
0.00021855910424911979
-0.0007456076586057429
-0.00031025119769215507
0.0003097444353453428
-0.002139252752851599
-0.0007116366555489738
-2.6333522172515225e-06
-7.449411621779061e-05
-0.0012960575410809689
0.001474807240529726
-0.0009723972215420078
-0.00020209896012473815
-0.0002618342874884345
0.002414616161578694
-0.0010518862587871173
-1.4432731708748364e-05
0.000371525533525884
-0.0008848261169122142
0.0010963155515577583
-0.001006227962774506
-1.2600135785225462e-05
-0.0005430099683858079
-0.001031444644926406
-0.0019592364971394664
-0.0008645733869929317
0.0016380940655507088
-0.0019549940501027247
-0.0012437979821353414
-0.0008877618292563728
0.00029585117431743134
0.0015663058972951917
-0.000921448420410617
-0.00010403533650834197
0.0013513382153438377
0.001456793072493267
-0.0014018673815103494
0.0002092096030892827
-0.0003531155396358913
-0.000785126944342764
-0.0004177234543169053
0.0014424714196948143
0.0013351183679952137
0.00042970610499186164
0.00011770098222893876
True
0.05655730629785645
0.11537341121582727
0.27796827118874223
0.4321504341383797
0.5287054141297363
0.5947076220619192
0.6983826657400535
0.7668294047934611
0.7955857613155092
0.7628237241536197
0.7873176723361788
0.7858342793655172
0.8103706195278667
0.808278859887358
0.8164030236696602
0.8346603954975909
0.8413978834883515
0.8579821071266995
0.8705769189297298
0.8868377459123222
0.9012347392402134
0.9228330626921188
0.9337362238360604
0.9437198034864049
0.9585753407190434
0.9730502322818101
0.9760551279514068
0.9841281301527247
1.0011628118302984
0.9972524948672226
0.9875139570450522
1.000153045235467
0.9794192754197627
0.9717839950933406
0.9608973929986017
0.947195608103706
0.9249694787899398
0.9136448134190003
0.8976022297810125
0.8901988307556513
0.8792250661980239
0.8669604317281289
0.8534327155590932
0.86058191612394
0.8487725810360949
0.8461588816760566
0.8201091039851065
0.8232109045233837
0.8301246101727597
0.8173501508467071
0.8189829536939935
0.8119588316634502
0.7956199353208265
0.7847305134046878
0.7825364870272974
0.7720176377592541
0.7622339774562722
0.7872477202687986
0.7752472764650892
0.7668620343221496
0.7677791651722039
0.7472797741698077
0.74427842485061
0.7278759918456328
0.7150770479583733
0.7392544272176254
0.7122632820354917
0.7099326616677033
0.714024786004029
0.7243047168862665
0.7072899796809697
0.7065046144682245
0.7167916711870678
0.7148533903292232
0.7142023549381328
0.7118902651971349
0.714889598671591
0.7201567599252436
0.7108760255160969
0.7088314638030394
0.7121278954371878
0.7243106467634047
0.7293392833988195
0.6998286745002357
0.6548739548973044
0.6233070278720043
0.49802068171454944
0.41897643604162954
0.14817993494824605
-0.0006220319779755655
0.08000387690444263
0.20082598815958552
0.3618617754882527
0.4697688673887388
0.52334424334229
0.6188938586751441
0.7029520568474134
0.7155982967044021
0.716308478072274
0.7182201005270733
0.7297820737272731
0.7289971716408734
0.7422140782707766
0.7453704974354988
0.7554855422753548
0.7570746767160252
0.7733092670499001
-0.0011321485315473317
-0.0027762484867751274
-0.0005767859009108975
0.0011277246437956454
0.0016040360623914246
-0.00022275910750971695
-0.0007768191086274849
-6.731637289718423e-05
0.0008817189216612668
0.0001416579018833284
-0.0002733498365807436
0.0007040346134692396
-0.0019460421848105651
-0.00022593065315392022
3.01123668818532e-05
0.0021679000023331193
0.0006294731517255463
-0.0014240558584547973
-0.00010781539858321495
0.0005383475307610004
-7.997647491896888e-06
-0.001721675143100516
-0.0012009813817380891
0.0019166256472093028
0.0008892585526735805
6.606101669399688e-05
-9.480287361928995e-05
-0.00028552692419499704
0.000519902392689929
-0.00086221634042908
0.0005998057909175509
-7.937465269920939e-06
0.0007348974754646495
0.0007979951431924788
-0.0021439250504496953
0.00012497536411565157
0.00028181691224876947
0.0014527698661180057
0.0007620427592226876
-0.0008619236007527615
-0.0006221645801804871
0.0002615660524612667
-0.0007664668218392072
-0.0008969067268647571
0.0009908051914619804
0.0008303730508217068
0.0006664397983440323
0.0010276341009050152
0.0003853690211405777
-0.0005694607417386971
0.00026803487684507274
-0.001132859838554894
0.0006278965214515818
-0.0006807953144745489
0.0003829226306488254
-0.0004149570316329649
0.00011914307745988957
0.00020140481586580048
-0.00026008759398630084
0.0014459098972134312
0.0012054521178658027
-0.00021056183885117988
0.00013605060717376686
-0.0021831385256297626
0.001237984394172783
0.00011602567608092036
-0.0016820145496589348
-0.0002639375576455711
0.0013733936391902267
0.0014912851724074134
0.0002124249888336487
0.00045834663009165614
0.0005825338442359115
-0.0007406254555760045
0.0008258911210555166
-0.00025505993341019064
0.001980801258625517
0.0021979805218629227
-0.0023041714572491685
-0.0005999855070364091
True
1.0008192413647594
0.963063202176307
0.6403831790517128
0.2404368441192408
0.19868920941862617
0.24894724846896737
0.22503642282999567
0.20802742314742492
0.20181620749166554
0.19794162242406022
0.20227253672939582
0.2016864721366971
0.19228745629903135
0.18764291576297895
0.1916611685595008
0.190714244628476
0.1802110100309992
0.18234014387465208
0.18976221944918034
0.1790722104458178
0.174230311218698
0.18802444947789662
0.20394797548256252
0.20323092654264532
0.19616200903690326
0.1887049682496775
0.1825558736680507
0.17035073186770214
0.1579378661036019
0.1416633281521794
0.1292995223052225
0.11490070519446695
0.09540719980369876
0.0807316524652958
0.06569534237095842
0.04777897959902028
0.026281969586155616
0.017128193955925724
0.014712314037288928
0.009141792606026222
0.0007673960653911654
0.01879133722645295
0.045120538287417106
0.0724904834051088
0.09809276975692158
0.12916442307371867
0.1553419009905701
0.17663474800607826
0.18596589708213385
0.2019464133886537
0.213999210092878
0.21798903107895412
0.21738056241056353
0.22280915363859347
0.23347411598817078
0.0013416163780970913
-0.0006975944552020335
-0.0006409129165451712
0.00220305983755598
0.0013781043895996939
0.0016075115911418272
0.0001469854976626024
-0.00018316659077973613
-0.000339922139846179
0.000678085156347084
-0.0014816749375020078
0.00029363788578868835
0.0019270129560271024
0.00015072329571813112
-9.757422970087597e-05
0.001550916896616113
-0.0010255006986710517
-0.0013052513530668545
0.00043704050410381986
-0.000616757662760959
-0.000694001129339723
-0.0009368584047971619
-0.0007335329056883332
0.0011177109493881341
-0.00010816025573944508
-0.0009472706878265512
-0.0012707451641991606
7.902932843176623e-05
-0.0005497475791394209
-0.0010732137131952717
-0.0016672235334154427
-0.0005475487674068244
0.000632237521804549
0.0002076539682604257
-0.0024277177549305662
0.0018447626262712634
0.0011267207318160085
0.000335923269758395
0.0017100344788384108
-0.0007040390607557721
2.876496818549067e-05
-0.00065608930784202
0.0005135600001715648
-0.00010152671064374807
0.0006176187786924283
0.0011936570554155453
-0.0005343030902674444
0.0011614158203671493
0.000610052598409777
3.295772205681325e-05
0.0017587817169099468
0.0006808614765360839
-0.00043482423165388195
-6.977198914172744e-05
0.002072776318815519
-0.0006167962071167472
0.001209328830927379
-0.0006731493080332327
0.0007300742968102971
0.001229791819596771
-0.0008188679297116299
-0.0017794684090376757
0.00041482870454573854
-0.0003077869475951015
-0.0008207782475121667
0.0005342264365690448
0.0007329926210045113
0.0005687371904429802
0.0004241083831299612
-0.00017877899031421221
0.00018588578165968004
0.0012329264672821434
0.0008772527651399123
8.257930819587167e-05
0.00046984588726718034
0.0015941338852463501
0.000804591988168238
-0.0006017523193334552
-0.0005462512024384283
-0.0006115836181053015
-0.001233939348706883
0.0007154827146633186
0.002012830977764095
-8.036318111960384e-05
0.0008187709718785483
0.00022979153080444561
-0.0004545143318325914
0.0009722210515868726
0.0003491340067086101
-0.0014342216441469318
-0.0013091138159131881
-0.0008177606706073527
-0.001678293282083461
0.0013234637308004132
-0.00047716564750763403
0.001388185340497403
0.0014990143773148533
2.4970962392126132e-05
0.0003830012198179771
0.0009222203170394098
0.0011702572067637327
0.0014832215274447045
0.0001910268273923225
0.0010826251269829361
-0.00013517809000265752
-0.000383779960525698
0.00024029725505105598
-0.0009606162427695935
-0.0012884284959486256
-0.0017528399933651457
-0.0017330800085737566
-0.00017943759914315266
0.0006211144064664899
-0.0001608393710085191
0.0001775149168315174
-0.0010710128982856775
-0.0004834283151157581
-0.0007459292403920421
0.0004354644056371806
-0.002806220282095728
0.0011885173056837546
0.0006683117678671165
0.002572526446167692
0.0024869451400477286
0.00027507502802136746
-0.0008203183331666582
-0.0007718669864422243
-0.0010075154419347636
-0.0012350669402698621
-0.0008379030914659648
0.00031196111787602424
-0.0012016978216056876
True
0.0011368149247448808
0.22232195214224784
0.37828774571611673
0.48203727511103006
0.5098979397502911
0.5152540184281376
0.5383560797979429
0.5419599132388699
0.5355810035767312
0.5488854821071504
0.5682393852383418
0.5620002597310614
0.5583901549759942
0.5697790672898425
0.583374558225337
0.5783022355014021
0.5723134348583416
0.588631170814316
0.6120147256255711
0.6000589150213492
0.6157874338942759
0.6327135544309819
0.6584719916519204
0.6734927640204323
0.6728186370961169
0.7140655615084667
0.7475396346865535
0.7684132388901797
0.7853366420719026
0.8116633290295716
0.8426561008865743
0.8643613769136852
0.8778668185987806
0.8925360023713774
0.8916937172870045
0.8787578714910405
0.8568340711659475
0.8277117648234981
0.7891555197648046
0.7404524851003758
0.6945894429571045
0.657278144630692
0.6339785842606334
0.5908144082621808
0.5679726109238541
0.5633074226593582
0.5625548063153648
0.5631422813054826
0.5523144709846839
0.5528047352120866
0.5526494299988494
0.5528916592113725
0.5513527282181376
0.5543855199648745
0.5626104837785596
0.5635151227594867
0.5544616682420938
0.5625151189127632
0.5756302202948554
0.5504271776685976
0.5462569640226749
0.5518271091768878
0.5529654804518832
0.5416442417817348
0.5250267230860787
0.5344649529822292
0.5417508733183825
0.5381707929710083
0.5188322507796247
0.5268129480677789
0.5355804036657021
0.5267360240891781
0.502893016830256
0.5127339782768128
0.5262886185323975
0.5210593207958204
0.5100597915434665
0.5030894929039066
0.5171344728731073
0.5127831299117346
0.5089476292562366
0.5033540393583275
0.514660271429238
0.5133825358678544
0.5036321054448504
0.5092434027999829
0.5275905173852744
0.5201880448942913
0.5119240098246115
0.51087067414502
0.5212346545397577
0.5177951718313679
0.5070742899509708
0.5069395778030025
0.5238575097014634
0.5212594665227916
0.501240065569271
0.5129351447337701
0.521655927734448
0.5206914709354441
0.5087907545873925
0.5193642042019753
0.5331684993052848
0.5241269796261125
0.5087183164099155
0.5196170203513066
0.5330286560513493
0.5254510328146534
0.5098997536980411
0.5242179533039271
0.5294645131682381
0.5245787258136888
0.5197148204795569
0.5183312732939448
0.5351821901083099
0.5509680631148743
0.5650436948168189
0.5795971722230315
0.6049740678868437
0.6197309418225645
0.6191295093643675
0.6136357800866562
0.5981266889847717
0.5869929862128476
0.5452787744457956
0.5226902675564884
0.5306256967469749
0.5250280752927367
0.5088057005668868
0.5074830376912839
0.506357837285878
0.5035813008340763
0.5053163791922508
0.5061103358680401
0.5149377338903579
0.5155818075338344
0.5243732804930626
0.6474775346749664
0.8734460988251423
1.0009368070042728
0.7126357183016718
0.2783011166129912
0.09189559097901988
0.24317233268563515
0.38919288556761084
0.49519008513606416
0.5519527645588987
0.5431258235678932
0.5362889444896692
0.5461298800639205
0.5701314656191006
0.5713994536056297
0.5673639076821351
0.565488183874032
0.5948838282728991
0.5959036292308789
0.5884583693162336
0.6029606163895325
0.6090726660730151
0.615640646784105
0.6006990396538376
0.6275850240341712
0.648053052481873
0.6399594625966052
0.6475665015019705
0.6620274669282671
0.6839799357905852
0.7090095389742893
0.7096523635494535
0.7405142080303102
0.7861334776282263
0.0017343110589083377
0.0012912174338985376
0.00010808240110472813
-0.001217197745137519
0.000360992952183979
0.0003099774031860472
-0.0024317622803920903
-0.00091998742918792
-0.00035716806165778336
-0.001468049854787764
0.0020893753728278676
-0.0007104190743519222
-0.00020270550426916835
0.0013695162947550841
-0.00037291220237329725
-0.0012635358583103962
True
0.9993613508966321
0.9573280443157262
0.45802011593471403
-0.000671750087909467
0.10841720000806147
0.34149012108010324
0.4209288402736796
0.4157451849346392
0.41022493140300653
0.42545885512972426
0.4339646841495329
0.4389727023823474
0.44069961684764486
0.4460529506526969
0.44894898706142033
0.46654832064087054
0.47467737352655015
0.4718759383565103
0.4941232895577032
0.5119201280311163
0.5229442671240319
0.5260499125500192
0.5414416180477424
0.5708620882126966
0.5728079877836006
0.5732633434017405
0.5882149769418691
0.5880403040689106
0.5770351320858201
0.5669769645508518
0.5742891445785262
0.5715204669981842
0.551466933514009
0.5266578772148576
0.501770088125421
0.48201579997562854
0.456810710066303
0.4321855056717768
0.429331785891375
0.4257493149131794
0.4243816131866863
0.41757238645775424
0.4307254009863232
0.43057577366980665
0.42978711140832676
0.43064613254536804
0.4390909179424955
0.44216423654300707
0.4332147945851722
0.43181114180459484
0.4327267899804147
0.4289362924867889
0.4235745415435293
0.4232506994849974
0.42282790778647034
0.4232151428647221
0.41720405375197417
0.4047017757654287
0.408622221259911
0.41109425537028227
0.4063807191002629
0.39849078401847143
0.4042464436151804
0.4113841629030281
0.4066136519681897
0.39025713908122467
0.39499717722594585
0.39696246614788555
0.39877905776005307
0.39513977935214534
0.3962905308627557
0.401794571403481
0.3993490577172844
-0.0006454720096213418
-0.0010170088070998939
-0.000711347503525618
0.0016476703912391122
0.0011569860176179876
-0.001370667667679309
0.0009653868677230307
-9.073694488247458e-05
-0.0012220206837406196
0.0008737270926892108
-0.0006256934454893353
-0.00017231692972130604
-0.00027885967865517487
0.002063948054778732
-0.0009058466410295292
-0.0011943336591870848
-0.0008592050504944753
-0.0008887478924857104
-0.00033610527066767714
0.0015250271773928662
0.0009597430909982856
-0.0004440533022578241
-0.00032797085544058894
-0.0004561251961636164
0.001093277370368722
-0.0005256798380674706
-0.00240647034915851
0.0010661162601278227
0.0006319577888276288
-0.001061760716122254
0.0006899127055441991
-0.0011455071837071715
-0.0009205485757381955
0.0006383137424192015
-0.0014749814362065039
-0.0007831142236154398
0.00024566001659957553
0.0016168405439432485
-0.00038906841831202847
0.0007826957725901081
9.574419598271891e-05
0.0009024594924285029
0.0008827322904278431
-0.0013189617833281265
-0.0010550496043530018
0.00039703926795701694
0.00014736380571637558
-0.00031272897000794486
-0.0009808984116388105
0.0005491900387130138
0.0015813842575971068
0.0005166879104163862
0.0015779357788726902
-0.002393452316836965
0.0024527230637589616
-0.0011278048943931453
-0.0010948926696418145
-0.0009362665235501187
-0.0005586940760179967
-0.0014353018179332861
-0.001894290071483519
0.00018984682429147752
0.0012147806710345597
0.0008706204798311317
0.00089031719810431
-0.0017183272661329806
-1.5672817249880283e-05
0.0009705515196204831
-0.00120983936320253
0.00013145685358914176
0.0016776403858104621
0.001006449507791564
0.001949485587081648
0.00021479709927583093
0.0003621872238281957
-0.0006120981480702369
-0.001189415499157101
0.0007213152830728646
-0.00021266562315485607
-0.000625258068511905
-0.0005905635319829094
-0.00035808157511045796
0.000571624075098094
0.0003457380349817603
-0.0019505063300860016
0.0009517551400708198
-0.0011963589355150498
0.0006592844011486153
-0.0007855069312677878
0.00044149706389727935
3.141866236864611e-05
-0.0007722818159393778
0.000603333710666789
0.000436964507907749
0.0004174816446109738
0.0001987444507689381
0.0013807877007385432
0.0007960752667198586
-0.00010904144656963685
-0.00015024734041993185
0.00052199446522574
-0.001273089851781685
0.0013835020113425812
0.00035864069537255914
0.0012656457304181727
-0.0010711293977481765
-0.00030893150001697756
0.001123469406669487
0.0009180970238067618
0.0012712573278519995
-0.0005433479868361811
-0.0013017099113325928
-0.0020128214675223344
-0.0012461489829989627
True
-0.001076442617155313
0.03467377317374411
0.16647996359214873
0.24638880286445958
0.3119467227904283
0.36185995134245375
0.4287072063779106
0.45029869535182
0.5053893353829589
0.5738610240902854
0.6142645329312153
0.6629084014822454
0.6702462563881505
0.687074717148276
0.6905921517512513
0.7119624422824778
0.7115794021627704
0.7456024034606192
0.7552840656154126
0.7735849312363573
0.7898886638684491
0.8056916481314762
0.8132910933988173
0.831460590618818
0.8309071821039111
0.8280966105132347
0.824849683354916
0.8209528434186573
0.7981971795520487
0.7895169432576364
0.7550635312131356
0.7505415567436481
0.7133345828133183
0.6894426395073965
0.6548300549963066
0.64740381967747
0.6467206284183105
0.6303832311335625
0.6210048719064775
0.6104052768588031
0.604414558434463
0.5950547777619043
0.591545805602328
0.5863204091370172
0.5890783624266994
0.5797891311527357
0.5781120236475226
0.5766174381027981
0.5819321332181487
0.5839956242183098
0.5850070650061218
0.5810922896042288
0.5798020833907167
0.579815327267672
0.5829013792144166
0.5800806188366454
0.571500607916093
0.5737487752645332
0.5697834788476482
0.5679263845648316
0.5691005470867104
0.5691269442277893
0.568827228350247
0.5792428137627154
0.571574839750409
0.5639806910879431
0.5765564926639767
0.5674473388134239
0.572014150427012
0.5776878885261681
0.5679595906564086
0.5768095876583379
0.575983731691189
0.5791363356373963
0.5673106133837706
0.571568794315107
0.5778038639723709
0.5779240931172469
0.5795989826445362
0.5826357223258445
0.5834745154728573
0.5978574706696164
0.595168278992979
0.6062650023417396
0.6041190392640561
0.6036481349304174
0.5822108569522083
0.584125556579001
0.5787554344153304
0.5792943655126761
0.574095236345254
0.5781545697489533
0.5892376574241179
0.5850435022687198
0.5832349497470224
0.5862094471179452
0.5790930983306529
0.5823426689003007
0.5802352543662521
0.5810485690678244
0.577109614069046
0.5749544455213476
0.5858400822149914
0.6789860591410791
0.7712201864717759
0.8822262526061737
1.0009205408449193
0.9691768096585556
0.6666933909082279
0.46405868592402894
0.4873927608451327
0.521124303451688
0.5261460106306021
0.5230561554216888
0.5247376656979885
0.5309461454123217
0.5466375616309626
0.5398987028846095
0.5440601440245229
0.545510834546422
0.0005625828193458352
0.00015827892214165623
0.0004378799961364374
-0.0006104794183222932
-0.00010314438490233357
-0.0010502914995074134
-0.00046647703088847567
-0.0023093658294324557
0.0004104054828992199
0.00043181032784307856
-0.0017252840310289673
0.0005158928745429518
-0.0009716298604976145
0.0014567749982140397
-0.0011565007386445609
-0.00030660355618240874
-2.7536099771538672e-05
0.0009481614702101778
-5.105078811992012e-06
0.00029267197201032975
0.0004052350372064839
0.0015136923859787996
0.0014163641504570288
-0.0002174804213013756
-0.0013957328987787272
-0.00011621693956695484
0.0005695690144572796
-0.0008826668313395599
-0.0006470983916107113
-0.0007992276959212717
-0.0014354147310615913
0.002660223137213316
-0.0004111232102016621
0.00039204047338877704
-0.0005125864179696166
0.001140921020094612
0.0009126561395124323
0.001583890748678411
-0.00029741562260478206
-0.0004411237602689416
0.00010815632210857466
-5.5136215376517485e-05
-0.0018346656252901058
-7.226965480345844e-05
-0.0001461591849978872
0.00017018864792694792
0.00020766765567925221
-0.00043100007832806394
-0.0012013463951719326
-0.000335996647645982
-9.304799836433617e-06
-6.432378225127276e-05
-0.0005036015693428889
0.0003618590110371363
0.0010177413732566354
-0.002550293106002515
-0.00015309526875503457
-0.0016051254592977307
-0.000277810369514527
0.0005911733204584928
-0.0012166348789211965
-0.0001391049149255649
-0.0011703113249203851
0.001501267042924653
0.0009659647621011009
0.0002935640011806485
-3.3432513303402693e-06
True
1.0000775208087165
0.9344616994410649
0.5270941032114042
0.33527279617444683
0.32127881046735846
0.2888245364663987
0.23558862089170407
0.20223347001474082
0.17602590397551837
0.1312315058309853
0.11118620706756302
0.08558310727071675
0.09327639167668109
0.08347202007419752
0.08989902778046713
0.07657622738651326
0.07851361477848248
0.07532096054776456
0.06660565855852746
0.06501212645517224
0.06856079005784846
0.049773378401870516
0.053244646831919436
0.035610544903957306
0.0339548536323996
0.025695892048821927
0.02547082928777465
0.008401704456225394
0.019182392271003743
0.0008387762677835189
0.016936374625061864
0.0132398611639401
0.016744492869842253
0.047010413828344796
0.07543470892903018
0.09634505161415506
0.12685881178009595
0.13889160848611729
0.1629815730767884
0.15480138894453124
0.1701897827805207
0.16020009484939002
0.16751455472533552
0.1568833377030817
0.16655086714482104
0.15911924339149422
0.1590805802367806
0.15367246597489695
0.16076102906015582
0.14525115184936255
0.16093002100570594
0.14556203591506936
0.15471125243214454
0.14371978257184564
0.15484509756711345
0.14775560276904892
0.15602692648384459
0.15327187493949135
0.1611375764447547
0.14905604356744173
0.15469971437145025
0.15402783639796502
0.16086000117987506
0.15283182573598716
0.16279104486064083
0.14842970924950685
0.15875912318553925
0.15690518367481304
0.17619733814592317
0.17536647102161615
0.18745918767793954
0.17634345157343378
0.19156087396654997
0.18042182746374458
0.18394600399469496
0.18155138609743648
0.18022546422539099
0.16524237083671078
0.16912388720862784
0.14356334876060065
0.159954431062149
0.14784875521742724
0.14537622695191227
0.14602827987139747
0.15107349387596467
0.14880675977272
0.15505544671361635
0.14980654193358026
0.15632823027404172
0.17573913932779184
0.2798973763130396
0.3889788140254476
0.5412962522455785
0.763621427549697
0.9854344775033228
0.9858671428712962
0.7447762620371545
0.42853715168171624
0.32466935763494487
0.294114995914581
0.27147554363503673
0.22266166583923816
0.20391784279141525
0.1713297665084289
0.1448952819010015
0.118279421719975
0.10413699219644842
0.08956083317540728
0.09488508020082045
0.08404252590676467
0.08819979332164217
0.07455389148709
0.08217088244893128
0.07861062058526597
-0.0006321944080815294
0.0007102748147001586
-0.000980318305823165
0.0005544455671195927
0.0005402373334342953
0.00021712495712548547
-0.00013626177353133872
0.0013343522160586244
-0.00036915405303094434
-0.0009969897515144975
0.0014234353214529925
-0.00032765171207311064
-0.0005568488429162338
0.0006791025281411555
-0.0018377530233258889
0.001927925861710989
-0.0010562104491861418
7.962014704845741e-05
0.001206318664481716
-0.00043355322158463344
0.000600208733821451
0.001122412921415319
-0.0010517918056278603
0.0008690566178053388
-0.0008008628953165624
-0.00039549210375741304
0.0005232356819843976
-0.0011220820480023722
0.0001741596453775167
0.0001400383394094954
0.0010881247941143533
0.001024782848558459
-0.0009799040090863107
-0.0004791367019520145
0.0014589258435267012
-0.0006592548016359381
-0.0011597547065839856
0.0002641402437662431
-0.0007706712605704176
-7.54778176619572e-05
-0.0004148336817878769
0.00019972208619983142
-0.00028175278663461896
0.0005968141532712209
0.0004991211633252407
0.001271892633909851
0.0002741452537166782
-0.0003805122579204802
-0.0009202903471424468
-0.00010086688474808088
0.0005710079676045584
0.00024220488653516902
0.00040403846999332416
-0.001296142409337436
0.0003600866615996434
-0.000519579550167745
-0.0010199204590799088
0.0005711983281135101
0.0009074110745020153
0.0018003652552852124
-0.0005866840555092816
0.0005455160216912635
0.0006188362543525704
0.0024558945864525503
-0.0010960432027573986
-0.0019290439209505713
-7.197899626055488e-05
0.0014719550521879324
0.00011436575961335931
-0.0004787751999319965
0.0011692610849225733
-0.0004450086217290777
0.0011442738060442241
True
0.8383987122713998
0.611354937216489
0.5967644030863987
0.5853155637392258
0.5707736312787157
0.509970347246341
0.47196207484854036
0.40674177936990463
0.3636145107625031
0.2705930131820675
0.1871595609920333
0.11244783876370011
0.10370199980865843
0.09312155986041397
0.13773150486085078
0.16002385958269225
0.2460325765526471
0.3158204818972181
0.3832002740669648
0.41445411047377145
0.44119354390262255
0.44687963183879215
0.47820807154679706
0.4664144054240553
0.48577655741755305
0.4746745903618641
0.49949919150535016
0.5128547844409225
0.5449619831582753
0.5309759609260425
0.5517901381823401
0.5427037322576835
0.5596567766659766
0.5514170517803245
0.5740710531588635
0.5684791750992007
0.5734239547518443
0.5785124551984873
0.5965678857801952
0.5877807402844143
0.605918429513597
0.5925962140366956
0.6187173968231582
0.6070216109488669
0.6170543911066145
0.6080539042292645
0.6098101344979594
0.587278808734997
0.5871078522032412
0.5650506628539232
0.5581147209254879
0.5382589922531967
0.5338866820445111
0.5072890696887821
0.5062428749932537
0.48453322370848295
0.4841071924474212
0.47216789380607116
0.4814979930297812
0.4559434908850859
0.4678353613966255
0.4583821695088739
0.46150943860702254
0.4517342556961858
0.4615302155800554
0.45193042350426404
0.46512102766049407
0.44818440180054564
0.4663361305538
0.44780402112371875
0.4603242332735587
0.45813743279879277
0.4445821062900976
0.43569397993181486
0.44194749279829404
0.4350528545747888
0.45208231578470387
0.43125527325742935
0.4440368887933886
0.4250450800513214
0.4334984817419931
0.4192557981417483
0.42607202517661846
0.4102799040970129
0.4252520339830396
0.40531876689403795
0.4191667574685011
0.40489193047789684
0.4223884273762111
0.41299378722013236
0.4199331117122189
0.41049382837291654
0.41544610431459517
0.4051727108066894
0.4162479119193055
0.432940421612843
0.4843709329335918
0.9995799109246783
0.6329573880782838
0.5653665458578596
0.532722203188124
0.4865446169229791
0.43576644185322677
0.3692739947723899
0.3372259736082434
0.2619655928419617
0.18437509435704033
0.04907773274785504
0.006182249953671309
-0.000240797576808597
0.029348776229284584
0.05235045817351744
0.13688392964173776
0.21891337820477486
0.32410989864552486
0.37307648421156975
0.42183518430095046
0.0004895622853148053
-0.00070713185507953
0.0005566714460273294
0.001109796048882991
0.00031815779302461414
-0.00016904501717402188
-0.00014026205679739003
-0.000627081182619691
-0.0021171427465910175
-0.00029160458614629464
0.00014833262629559532
0.0002549693425942924
-0.0008583167682536399
-0.0011498050645810092
0.0010564508269874458
0.0002936429321769225
-0.0011418973792867535
-0.0010931722335554978
-0.0003647100182914751
0.0004546866891262168
0.0001901818820125395
-0.0016656744076194278
0.00014988806603506602
-0.0016636006160303592
-1.31711150048728e-05
-0.0001272122117961928
0.0012057398278917488
-0.0013885858045839155
-0.0009839066537742046
-0.0004432299057821913
0.0011238920007398299
-0.0003182138853862852
0.0012369533496429175
0.0009844360410317245
0.0016584453504246382
0.0003339641971794202
9.734897837972713e-05
0.0015697800443653072
-0.0009426014238332622
0.0003534264324283347
0.0023097001559685294
-0.0011740782046663744
-0.0010559541981687035
0.0005068553658710114
-0.0006323046454727562
-0.0015054266416275786
0.000498855152923053
0.0006717828219123934
-0.0009427288841006191
0.000922189443249782
-7.722788838002753e-05
0.0001231197889080732
0.0006970446333862438
-0.0006861843211307993
0.0010498723815131467
-0.0020297218583775556
-0.0012149883557806814
-0.0002043872617917417
-0.0017545375990422499
-0.0026481477093774856
-0.00032879002160054576
0.000922316284872263
-0.0010372788509696118
-0.0013378232972538534
-0.00046914778488080515
-0.0009365321823821837
-0.0006501714701992016
-0.0011468352736791537
-0.0026471882982684776
-0.0008004742281488516
False
0.9185107451780999
0.5933376411460282
0.6174254282076416
0.6216204034983821
0.6413865682478865
0.5985334420022579
0.5782034932459525
0.49997147922787893
0.3730600170339416
0.25482046932953883
0.0709372110078681
-0.0005780298476111013
0.06640838701198773
0.07982527263140483
0.0988424830235435
0.16372420661246417
0.2145731806238162
0.18163519535499037
0.1569476477584923
0.16188012157802015
0.17257128289311888
0.17524172745955766
0.18284106370129222
0.19148946859985608
0.1908082042607578
0.1921584103236786
0.18249399881037542
0.1801879004413185
0.16857862093469847
0.16735158775003273
0.16054430937404993
0.15309582301617605
0.16419436402059534
0.19492958667929225
0.19663363889399396
0.2206986583267784
0.2475244256710412
0.26019246893600223
0.27025987264347184
0.2928246054305731
0.29774072836861804
0.28206949443423546
0.30978993189824633
0.3246172443181787
0.33150239411883525
0.3329719855049932
0.33174839114552634
0.32374126282102317
0.3118942827436553
0.3094949786086729
0.3054509175248471
0.289946745878934
0.2885830087389871
0.2810383142147948
0.27428074583867346
0.2696255534024441
0.2685687045387954
0.2699949425567864
0.27223019858364583
0.25802654071821934
0.2664226438388308
0.2589731296661437
0.25328898780235065
0.2534834818143324
0.2471224964848702
0.24660439205988613
0.2387661044177637
0.23675881221117775
0.24207944368859546
0.23796802210198517
0.22572086491379098
0.22514580757233038
0.234595029201859
0.23365986325266647
0.22369231330178674
0.22641265716123116
0.218893081007106
0.22781245356771312
0.21357947323434895
0.2183309403163687
0.21569654792248125
0.21528081526234866
0.2121660667701113
0.21150877534619641
0.21486741142461346
0.21523668993637005
0.2132212270931353
0.22672295123967098
0.2274523041341823
0.2219964009804776
0.2288758261333193
0.22536530132562851
0.23339677430555908
0.22113022997642762
0.2264802291519262
0.23537658942357081
0.22877121554778312
0.2347773737466872
0.2358513008377138
0.2380638149504515
0.24693626027167156
0.2557107405215778
0.27860663410915115
0.35236050835405713
0.7852803879739423
1.0001326259131078
0.5754654812396458
0.5810837035364234
0.5746238325360916
0.5905438081053337
0.5703032369811094
0.5574390104751727
0.4844174052729002
0.3794998010392212
0.25546755816677436
0.06676712837299378
0.1120101535048598
0.1844820792512444
0.16391732105582518
0.1812160338356186
0.2280127069642686
0.24110828762030448
0.2098572272696779
0.19535454855975332
0.20810566859194493
0.22157281534832016
-0.00023044663615488727
0.00023332057169343838
-0.0010206305972381953
-7.002938204556434e-05
-0.0011535477558035486
0.00021721262626410144
-0.0013718627827188142
-0.000486287173810965
-0.000570659788879883
-0.0022737742131444818
0.0014336596896584177
0.0021633657568985807
-0.0013106399781644238
-0.0012303741308158003
0.0015207259237998013
-0.0003932966544136289
0.00031552164851527867
0.0009399325724392367
8.100180457653473e-05
9.515180127518468e-05
-0.00047153143922260416
-0.0014119412315644875
0.0009051766618022476
0.0012622639673706595
-0.00132155234581822
-0.00032083871735880473
0.0008985572121703503
-2.8804249135150546e-05
-0.0018236518267595288
-0.002844983442480873
-0.000635024809528833
0.00029300957666962573
0.0008441295220038117
8.872226789970444e-05
-0.0006243080025208808
-0.00024328927073117082
0.00202310895393233
-0.0014217255483181916
0.0014368796052610044
-0.000694870159051151
0.0003522931450395001
-0.001144390345923301
-0.0012263262652892047
-0.00037592343286366474
0.0009771949987829472
0.00015216383020084408
-7.04883880589744e-05
-0.0003971510919349724
0.0002323902223833615
0.0007020516133623985
-0.0012416319613945397
0.0024332719571364897
-0.0011283507887040309
-0.00043022488305778786
0.0015232329175578416
-0.0005223325664000026
0.0002477391866052152
0.0003249544624152502
-0.0026212204482107715
0.0005038629412023422
-0.0009308694287957636
False
0.4770722098000446
0.4193550886258119
0.36969175382307234
0.35483155524087073
0.3081091672858282
0.2798914650935881
0.23251560692987713
0.19365679089016333
0.08643106441608117
0.04349764350167486
-0.00023874068647347128
0.00425353369875828
0.010840563831119449
0.04464830938366484
0.09874217399172164
0.19183775262885197
0.24350042050708054
0.29102178352423463
0.29828168503924146
0.32078456563221214
0.32321897056648197
0.3348551790431056
0.33089262666134966
0.35249846493237086
0.35984444680108446
0.37596560859585165
0.3707497242577796
0.39032401104882863
0.3814843640947516
0.39465487627614687
0.3957504102988431
0.397493752176701
0.3937355180966616
0.40701778902610947
0.4016302193115314
0.4181112144176025
0.42043554888215456
0.42899154900559094
0.4230897212643479
0.44758353149409436
0.43695892544832315
0.4453491480151539
0.4464486944355779
0.4481396683400611
0.4474202680056372
0.4574702552269318
0.4431309286202231
0.4480989307162515
0.44440040192080277
0.44573445349021373
0.43513640626540057
0.42755064720525304
0.4217435838186681
0.4208673783033911
0.40359790249311256
0.4005916003260238
0.3708561741736716
0.36474270617044247
0.34049705888726123
0.33983639840537594
0.3261260314331774
0.33017757225309624
0.31747509140803515
0.31769370945363723
0.30615790565914963
0.32241087270173135
0.30564641699818634
0.3138297445297792
0.30605035217250054
0.3120312703402838
0.2995978433964637
0.30219579318220313
0.2934401535461771
0.3088555855069351
0.2903019371868837
0.30139639686565967
0.29500544178721605
0.2978589588313243
0.29553370036890975
0.30019195616110816
0.2932554170237265
0.30877690338562247
0.2951102209683541
0.31080451600540615
0.2985324097623159
0.3129734533585037
0.31586968102275137
0.39818806342568325
0.5224973620226095
0.712411308531409
1.0006636591451765
0.9256544357171737
0.8967081538511857
0.4228384780549679
0.31569183475349566
0.29757359299075686
0.2946286809372487
0.3026868360051074
0.3052554073253205
0.2995076355251052
0.28838063021414045
0.2857388460364939
0.26981515407825735
0.27594593479374807
0.26031657926651036
0.2626080663871333
0.24681659647096346
0.2500335852039645
0.24094329027303538
0.23715879017485175
-0.0007693562154595985
-6.22561822898548e-05
9.720334747236463e-05
0.0008444578980269351
-0.00026947494203562823
0.0011629317712962815
0.0009981162098938272
0.0006382069881101429
0.0009003507315100114
-0.0015284943906317234
0.0006950024485263584
0.0009775242397953702
-0.0010517791325231713
0.0009012367869972808
-0.0011389335163113816
-0.00020539631423343276
0.0007526467862423604
0.0003015150619485292
-0.0003942448233296076
0.0009857981693439885
-0.0005304295207367922
0.0007720050370584495
0.00022495052463601187
0.001016264540708754
-0.0019390490738304916
0.0005323627953655023
0.0003716873635296116
-0.0014621385264639518
0.000268581431238183
0.00038898120045557
-0.0005730855987098007
-0.0001483775242816983
-6.132062585988482e-05
-3.3595180717380973e-05
0.000776911784145016
-0.0009035229164520794
0.0019188749356718502
-7.50244629046394e-05
0.00023137568076336807
0.0016304024675160489
0.0004967096563099132
0.0009208961623000105
-0.0008066852156864955
0.0006654096796423054
0.0022716909547238814
-0.00037942892091192204
-0.0004625615957151696
0.0021448354928935045
0.0017433794488765284
0.002077483075821046
-0.0018271955373748456
-0.00036800557961347427
0.0006458082824476092
-8.344987624200215e-05
0.0018421423185679766
0.000963040135797816
0.001859759010513208
0.0010447642727915158
0.000513680905722666
0.00013173709083590901
-0.0016357196324922256
0.0008828928250476074
-0.0016241896651781
-0.0010128276958844855
0.0002445300997932853
-0.0001843551808757265
-0.0007597500894577122
-0.0011165156053711091
-0.0007102531343659891
0.0011255721244932493
-0.00011776088188858187
-0.0003355870920615998
-0.0015389833793948789
-0.0005481751936810573
-0.00021957256243203355
0.0007638720998026948
-6.231792934167254e-05
False
1.001796163221195
0.9059030918127579
0.2249794676232782
-9.354203626617688e-05
0.11981736088723152
0.16054517420993974
0.1629034837515099
0.11520100592899217
0.15704833645372318
0.16685320435867668
0.17802531318308593
0.17493851143449787
0.12459101212046941
0.11847301048000028
0.19802973092307263
0.15944164576332276
0.19395057318660985
0.19041532612413803
0.21681880828168557
0.18045352272044224
0.2278392475487691
0.23876200002138792
0.23704663244326463
0.2563509997518069
0.29310232232686884
0.27309198824655795
0.32114017361933844
0.3116822503624042
0.3422826825090964
0.2923230103518569
0.27701945905034825
0.25098137168921547
0.27165742619077315
0.2583995200647412
0.2649184771915341
0.2589986505494907
0.2761379997044262
0.26940212247841533
0.2819936899932972
0.26324497273300224
0.2578462119250466
0.2558265323602906
0.26067777313685475
0.25952502431607133
0.2415146947865724
0.24653737365709805
0.23649986217669697
0.23460930592968143
0.21307436693253465
0.17638005862360784
0.19197473596723708
0.17410145196543725
0.19351938824906828
0.19366210799020675
0.2064108495124501
0.20530560048269048
0.21047524866133221
0.2166952555866571
0.21549863176561415
0.19463803330292434
0.269786671187978
0.43364637031908265
0.6234750165494338
0.7894718806344808
0.9754718790356384
0.8693484442814985
0.4633497331020528
0.038598509607412776
0.015610588852279242
0.07729321965581797
-0.0009713585370897024
-0.000704206017824817
-0.0006371412068475259
-0.00043106530126993956
0.001589055237783945
0.00020521673798650083
8.992827955248237e-05
-0.0001666506455557395
-0.001146139883592725
0.00044294761136074465
0.00025374332257446336
5.7631745708558106e-05
-0.0014175466277211337
-0.0006509481649315163
0.0014268352818117942
-0.00013400208752623147
-0.0006216370212161165
-0.001081397815495299
-0.0027557844852367295
0.000608159628569413
0.0007530345469863376
-0.0016234746794724865
0.00018904760306473597
-0.00035127787368202846
0.0007644050558300703
0.0015310153928650072
0.00010428213233594509
0.0004031961112892335
-0.0007352533885755452
0.0007483827001838691
-0.0019741333529449028
-0.0005676772023817834
-0.0006870043444767937
0.000584100336418763
0.002206404812609711
-0.00042834482488215015
-0.00048306010321477516
-5.357796090886313e-05
9.616900743339706e-05
0.00041247380864728944
0.002635250089299654
-0.0011763624115802443
-9.277184306914402e-05
-0.000491092811277355
-0.0001633266426322549
0.001968117949540086
-0.0004849286445332849
0.0015822978828012983
-0.0003497026307553018
0.00188560963536386
-0.0018859807420340967
0.000334651033878462
-0.0002527217214905458
-0.0018880163488099251
8.245560923381651e-05
-0.0011640603164419343
0.000781092829666579
-0.0006900771120658195
0.0014921475672472358
-0.0005576568045536826
2.0679270366698843e-05
-0.00014000787071716036
0.0017061096184563483
-0.0006154032551564637
0.00028637201660464823
0.0019195634653065158
0.0025875199194623144
-0.000882139040978037
9.845422159023313e-05
-0.00015324801038513905
-4.9019380402930475e-06
-0.0003308966022679592
0.00040109459343676507
-0.0011197992882484532
-0.0015140616469120685
6.227090563824559e-05
-0.00013781143264839817
0.00021114251618513987
-0.0011649391075655587
0.0007272032618922939
-1.0719776803013785e-05
0.0011074652030028075
0.0001106268631816681
0.0007085722186079104
-0.000984183302934576
-0.0012013055036169688
-0.0007713564458129876
0.00033324648566420383
0.00016714365738528572
0.000474015445690478
0.00034065633821428085
-0.00016546914904358898
0.0009975793473625033
-0.0001619148245490528
-0.0009299933806184695
0.00022173340124013224
-8.204061880678237e-05
-0.0016541945571804226
0.0010924187403419793
-0.00043077265837697723
-0.0007520867166365129
-0.0020122934850759595
-1.109799733027868e-05
-0.0006137566481446487
4.1298967026450666e-05
0.0015812279461361828
0.0006364783167679753
-0.0015399298490041105
0.0004004037465988993
0.00039105658713949406
0.00029557050329115896
0.0016337844056329113
9.225338614741394e-05
-7.27929625109048e-05
-0.0020637703431772235
-0.0009446247158715067
-0.00032974798293139895
True
0.8943767725021559
0.7889524217291777
0.2550872228671416
0.1458465562693387
0.10063594636488499
0.09729745863210161
0.059299335120575405
0.05914002613379397
0.05064260466150691
0.04625588439970496
0.07439303504183334
0.08121207488154242
0.08741670507596923
0.1010424578431655
0.09227523372870197
0.07847691921275816
0.06007444343653173
0.06941925081762365
0.06024137893200642
0.06546792502291793
0.035822138485993624
0.061709979243749935
0.08319808248446516
0.10397627245277476
0.13751442426411215
0.18443499327958154
0.18243057185198097
0.1965029994200783
0.1577027115597022
0.15873103471607364
0.13916724093749538
0.12418049366075856
0.09696813005265809
0.11126229522217972
0.08334572681827077
0.07753334074249192
0.04964707705774087
0.03105523467067232
0.012427102767479083
0.008767626306739891
-0.0007588196794034747
-0.0006043612763013169
0.0003650539026905829
0.013151682334133972
0.027361538912663335
0.04113750408839132
0.03613168898010239
0.06231684440361232
0.054540782741780536
0.05545968400812895
0.07354704497168245
0.09594095955815433
0.08668731551239933
0.08563949760667927
0.07654578251578575
0.06475215666626241
0.04983999758673379
0.04466146571929855
0.032389978335934266
0.017962691746579582
0.005290295154001202
0.007971874517401242
0.014543737371730862
0.02192128297027631
0.033792354016776105
0.045534384553210544
0.04405487944617169
0.05542823518038056
0.06004364475178614
0.10511887766963773
0.1473130555849744
0.3569735759705972
0.6748497222572819
1.0002972111884951
0.96545913364169
0.4491453625666007
0.13207088845093312
0.11948384199333494
0.08743500230163763
0.04739659564243869
0.02021985690304642
0.013452857920153646
0.00896995250981004
0.014597391563133328
0.04213942401568341
-0.00219958080426776
-0.00016903455273402208
-0.0016071985164390404
-3.7904042772621296e-05
-0.0012481517764854257
-0.0007862534880803687
-0.0007030445051676002
0.0014030362583685439
-0.00016499558613568678
-0.001416564608012341
-0.0003194920562428258
-0.0001273415967914914
0.0018941491766446866
6.058627725105436e-05
-0.0005476926249513525
0.001395247524903372
-0.0014593452865866731
-0.0006496325920331864
-9.393533224992638e-08
-0.00035166255958883944
0.00031449555815069144
-7.656172918536988e-05
0.0008267023584020304
4.3595284737288217e-05
-0.00010053272409511098
0.0009474405873261798
-0.00046672141115398165
-0.00018460185963745652
0.0013279199929119479
-0.0012063241049342739
0.00017321503901659792
0.0012757607599030143
0.0004369960871908894
0.00042282166479085836
0.0021198837178383156
0.0006081252494333397
0.0010257553933625512
-0.0007373779979603242
9.823495155585793e-05
0.0006108730184851476
-0.00043375379626904364
-0.0011841826576021188
0.0004867079139506182
-0.0009955774306361455
-0.0010332501638536482
0.0005209962375690478
-0.0006386293053573384
-0.0007353677690663401
0.0006400073221350599
0.0005808699515812269
-0.0005928641590807799
-0.00024843523114560047
0.00020207655223437418
0.0003196565116500339
-0.0002887212803357249
0.0009509235214374912
0.0006469995730585095
-0.0019264489432745347
-0.0001853853347595204
0.0014572186557166322
0.0005335291227486045
0.001708529579341259
-0.0005476721402667822
0.00047830975033624757
-0.0009834788945509254
-0.0004614027102814213
-0.0008072766966586786
0.0015200645640669024
0.0013753412242312466
-5.2840916335002935e-05
-0.0015056479998297667
3.5504483076936916e-05
0.0017280965780228081
-0.00020360028322879091
-0.002330117000793953
0.0005317069011609685
0.00017588372630715444
0.0010905131277196558
0.0016639662236167217
-0.0005771038241184929
0.0020685665407256678
-7.551560107101003e-05
0.0012249374273806894
-0.0010051215928768037
-0.0009872740305169772
0.000435310686380425
0.0002212032026503739
-0.0014363827697624352
0.000719293892075387
0.0014621517000848907
0.0006810105963710206
-0.0003207289882566809
-0.0012059793192551727
-0.0017184664820094856
-0.0018859484191341674
0.001273504307265527
-0.0003904405815323181
0.00013971682613987018
0.0013690970762627699
-0.0004919082087260188
1.3112479271346479e-05
-0.0006384866324136577
True
1.0008370564441134
0.9570300967050575
0.6603735173023695
0.3099435117350045
0.20718842836906942
0.2012950526482654
0.1567889806492772
0.1269667719359804
0.13373978262374348
0.12802154059892715
0.13026735203949388
0.12398797921116382
0.11712029340716028
0.11824634979600221
0.12083764636676114
0.11214799321786822
0.10327842244578463
0.10606493050010367
0.10087712568441162
0.08112785451363251
0.0637539857091137
0.05234496714701535
0.039225655061600716
0.019280403414829277
0.005718459416297398
0.001375385315191624
0.0016071551487360062
0.010382203708958778
0.0312035911210953
0.07079355467893611
0.09989737664013772
0.13167209188460668
0.16677989321469994
0.1916964823748418
0.2055741582722153
0.2109488721862261
0.21398422238600287
0.2236074608347136
0.22609657292374563
0.2210088591543956
0.2220053858683081
0.2248135681950956
0.22641521156481126
0.22294490148540527
0.22087759859838454
0.22726891329715562
0.23015999063006948
0.22032429246018728
0.23405641696851426
0.2636968295211556
0.2903995665565674
0.2927099820342882
0.3197812025319373
0.36354201293772426
0.3533142002608648
0.3299233578347422
0.3376269601311824
0.31903403065427566
0.27712022682024284
0.24622192995408265
0.229900730087867
0.21942969311925617
0.22303801677835683
0.21501160707011088
0.21399869469873636
0.22581649957065544
0.24277575261975087
0.35031344831151223
0.5811185910189015
0.8019197216443192
0.9854780262331359
1.0019511719933791
0.7970648820189983
0.4342844922518818
0.25716799051493994
0.22899245116840997
0.18190600221653128
0.15750083858846664
0.16366269781298345
0.15468827274693236
0.146313275117959
0.15107458587547148
0.14894247981366518
0.14829543086474395
0.1468004585323672
0.000661049262237801
8.834531917910168e-05
-0.00024581276378515663
-0.0011527917614230776
-6.656361226879596e-05
0.00011358127588753089
-0.0011615971600743382
0.0012929892757483792
0.001092627673659845
0.0003150670201067023
0.001422261935159958
-0.0007830201215664601
-0.0007888277375115508
-0.0011198224990191952
-0.00026385067156730664
-0.00027319859312940746
0.0015099000161631895
-0.0005812162489539416
-0.0011842102332258041
-0.00017652625984961615
-0.0002425715419627254
-0.0005988099065989966
0.00043909309341917994
0.0011424572190172576
0.0011136081309116828
-0.0010770048185894984
0.0004272658168665397
-0.0006426030733032989
0.0007237876486816355
-0.0009049533708149262
-0.00039347597891321694
0.0018958402021103926
0.0004803887076781775
0.0005313677306249739
-0.0006718359791600206
0.00024050947894699466
-0.0011558713170225965
0.0002634414296221387
-0.0019827599644530636
0.001374763107366913
0.0003905212587524172
-0.00014776015398567903
5.073306445485095e-05
-0.0004979822884270169
0.001700027825141443
3.852306354984964e-05
0.0003233710568543138
-3.829822081873311e-05
-0.00024653931452696436
0.0004966102605321919
0.0011272271926855767
0.00029989368474447
-0.0012925231401987125
-0.0001332843178286601
0.0008584732491619231
-0.000899932315047374
0.0021193041351101655
-0.0008296057504838985
-0.0017475117901961665
0.0002523795905976374
8.286225035975751e-05
-0.0007122634925018665
0.0003891279626747642
-0.0005155992506752499
0.0025552157080809303
0.0002740784103772141
0.0007543804630615144
-0.0006510653238513013
-0.001085073150910307
-0.0007344398702421924
0.00032346156707578204
0.00030303515022167283
-0.00034425763107835705
0.0014255036402666672
0.002999903660732817
0.00036551705203218357
-0.0019563237335646737
-0.00044556479855841093
-0.00010093804993794717
0.0015113008221338308
-0.0002724634381819065
0.0003427370629787655
0.0009767724122373418
-0.0018261934482781273
0.0004345025187696509
-8.92706149636176e-05
0.0002950569192038537
-0.0004232784298980706
1.4560883591324749e-05
-0.0005299669278458919
-0.00037061784646581287
-0.0006693712839286717
0.0014589574938270512
-0.0011470596614832338
-8.971795718716461e-05
0.0011045669272012166
0.0005740891557140169
-0.0001227035132231537
0.0010873411747176775
-0.0011366812603649807
-0.00087713615443695
0.0001799094397878267
True
1.0006012983463226
0.6457512068260037
0.02023220548273884
0.0003239094332704236
0.043616509331155635
0.017031040682518383
0.03260317379685223
0.04092279800320291
0.0196281798626924
0.01135777543542986
0.01457880375002943
0.02188306567133046
0.027994744855020282
0.013250838789741128
0.01323506452889532
0.025038229543760587
0.0205989066953267
0.01273916001471509
0.02019623241857616
0.03320094362874231
0.031079182198051038
0.018667825912621835
0.02970709599799275
0.03956171173504643
0.03625357132124623
0.03614383718286177
0.04248649617887635
0.05623593757056843
0.057886549468188456
0.055099520196476647
0.06031107934718395
0.07411743534337992
0.0752033876658716
0.07335978985148836
0.08843490019763449
0.09880207667728397
0.11066059064921714
0.10815660114851014
0.11852096165780858
0.1450027340174513
0.16190227608398527
0.1689699965421634
0.19205526062676298
0.22587062672147387
0.2415223597192154
0.2568245111454943
0.2840374619275942
0.31283184989020996
0.3244754824548208
0.32785345730060333
0.3439108339214441
0.36036304892049753
0.35566993707586086
0.33843289552583433
0.33139431105853584
0.32425071074415135
0.30428805008342164
0.2741508452737066
0.2597172885446121
0.2388429223138624
0.22476201872333587
0.1980363137255447
0.17710615205005617
0.18016974994924267
0.1612929222064509
0.14378849745490632
0.14097071577453302
0.13985918739620937
0.1266005574543861
0.12363394529604124
0.1249622100425762
0.13015191047521585
0.11589880660309436
0.1064257037850748
0.10682645316078596
0.11064963899666368
0.10894068349996686
0.11064090413894803
0.12024469119249474
0.13752827186478112
0.1474157384205331
0.1557428877095629
0.15870025870037013
0.14862207818248313
0.12405264452026922
0.09282566409494945
0.06357913688963951
0.05136389624144787
0.037194424432017335
0.02666137910507496
0.02792482236057212
0.030801015766105225
0.0217844298406642
0.01142116128778711
0.01561342363460712
0.023629646559103885
0.013046967900519702
0.015036150700206448
0.017927866058124912
0.026430499678124823
0.022273478804483857
0.01311466508425121
0.013825987681082416
0.02863170149383319
0.021473978399267818
0.015671008961880242
-9.993777706847783e-05
-0.0004588793429153618
0.002383981823656839
0.0013534984488953734
0.0005336888465677908
0.0002170989043669295
-2.111191844735603e-05
0.00039467457058811877
-0.0002890830210006653
0.0011305164148462017
-0.0015999618000151282
0.001555803103348032
0.0005579769592342084
-2.0733073350762513e-06
0.0006495853576288536
-0.0008946484816826474
-0.0009761345154457222
0.00014140263832730434
-0.001136616152665454
-0.0006922181041770629
0.0007752426190902468
0.0005548151765673485
-0.001320141954664129
0.00021233619719035097
0.0007966805115245438
-0.001473017656811894
-0.0011505091157374137
0.00035001179962631303
-0.0014638104140089027
0.0002437051571331555
-0.00045737032975321244
1.584924208121895e-05
0.001982665976555153
-0.00025753465842228855
0.0008358105065042052
0.0009875648952550398
0.0010329875015399363
0.00027304469372577437
0.002008907479124887
-0.001351152171653337
7.048718684301786e-05
0.00018317123172872742
-0.000611580603030384
0.00022077691602223916
0.0003571660869118218
0.0005330672818212088
-0.0006647350688918544
-0.0005552196403116737
-0.002308357854213492
-0.0009562594078493696
0.0007959321648723383
0.0011050728948101764
-0.00046801627837731526
-0.00016730293290402782
-0.0004948567734509504
-0.0005466207045811156
-0.0001374699330554768
-0.0010010089475784142
0.0008683121569434533
0.0007782280939067604
-0.00027386080069132234
-0.0008477659770782204
-0.0010400296098611805
0.00032934667841154043
-0.0013449762180141375
-0.0008513385355764561
0.0024007119192559247
-0.0008767833660109406
6.201813676581634e-05
0.000600549948344801
-0.0003326441050772818
0.00026797592319817784
0.000645613130307458
-0.0002764771406905491
0.0011106830544264767
-0.0002847387305582709
-0.0007932847946808046
0.0006586348016023988
0.0017389018578224432
-0.0013887305633863186
-0.0008987184548155964
True
0.9111813205610816
0.8213424498339302
0.6966709637714936
0.45218975279670903
0.18442268961297775
0.1354688581172992
0.15443157449117342
0.15593117423197206
0.16715011984529846
0.14934335341545904
0.1685666456030917
0.19172929587025694
0.18869366493315723
0.18950369276882725
0.20236311422297293
0.21503595449893975
0.1790667374994081
0.19692775151883513
0.2217566377996662
0.23883786233129847
0.2441892124619592
0.22131708891231472
0.2321151695544806
0.22262579811505487
0.23163981341100529
0.20717112310779884
0.2199386447881314
0.26054500792862795
0.2507200319735442
0.2027331026875153
0.2015886170524176
0.22537104106352845
0.1899293633900553
0.1437897515140413
0.1386282712249557
0.14996205780442434
0.10067729171643211
0.08983745885608178
0.03081665551878111
0.006154950776190639
0.06597778831550456
0.0660761821038805
0.02374403011474649
0.07694645160081266
0.09060327526937714
0.07681792409453002
0.08754881457213093
0.11799322221595697
0.10108010724590505
0.08886280985215332
0.07243568640316918
0.09132699899119995
0.04347400542553828
0.03374863998101852
0.04069346265211107
0.060667286932878414
0.017185597147463837
0.007749696033057936
0.024094279905182637
0.023790898656678848
0.012095859891474506
-0.0023071183139878014
-0.000688987931223523
0.00501878051648878
0.007084203302705097
0.011430853827978451
0.011711127477334151
0.010422964211532893
0.029049573539439426
0.01882829359023257
0.019921757954291606
0.053918459731764415
0.06643573051393917
0.06526417798984277
0.10757319431868757
0.13479286958357387
0.17283502090257757
0.20328772021985914
0.2313810374545468
0.21918626877448005
0.16067021035163123
0.09466015311986897
0.09940919678015878
0.07925572379474638
0.05324893259768738
0.0492520832445944
0.054794908504690376
0.04679943733022011
0.058585456436374264
0.07033537225632837
0.2018566766547725
0.46008923971211063
0.6711408209070081
0.8171416702504573
1.000213568787862
0.9595705993477086
0.7153832459401388
0.49414390359283084
0.2982491924284165
0.1664528057302236
0.1121456396405582
0.1668515748306248
0.18469743004113182
0.19546002367290435
0.18985646433172784
0.19085143894034098
0.21480967842654508
0.29643404799656625
0.2573782348294818
0.22553386727055624
0.2666450595709767
0.29074019547414254
0.28482001817963903
-0.001299993620516918
-4.180819530340864e-05
-0.0004190046302998481
0.0005150296866050805
-0.0002666991792687191
-0.00022947636519663627
-0.00040789565206153
4.0636885184779204e-05
0.0006184618198202139
0.00015948328125898898
0.0009247818234916137
0.00034834129477436855
-0.000483978372537123
0.00027434446876720023
-0.0007630440217596831
-0.0010389912451484258
-0.0002045415584535198
0.0026848547104592366
-2.2615296901890622e-05
0.0010391507317165387
0.000461245158474488
0.0011387128371967274
-0.000675943067002996
-0.000971094458927023
0.0016934522017674036
-0.0002191670800498496
-0.0014305501091143656
-0.001637479606642919
0.0005448052857817651
-0.00042844104606260875
-0.00337933052787979
-0.0010897813383424011
0.0006277622992437881
0.00033638406288511477
0.0013046495554132063
0.000185432603531767
-0.001323585908865428
-0.0010335605030066797
2.5250361007704498e-05
-0.0013357519525296116
0.002167519643404728
0.0017690797560308822
0.0007609195971968855
0.0006866806915412987
-0.0009571300152415371
7.090603389250216e-06
-0.0012560905872740344
0.0026180555715088574
-0.0003398183064149012
0.000490364740288525
0.0006536505592303177
0.0014679679062158545
0.0008795234267688645
-0.0006661232831422637
-0.0011305596220322332
-0.00011409585073230033
0.0017360024053574975
-0.00011551812112350093
-0.0007711052497587123
-4.004663515548748e-05
0.0010940230692669617
-0.0008897109609240226
-0.0011236059883924013
-0.0003304054730715582
-0.0006811947542042715
0.0016101394677332241
-0.0027245260628137886
0.00036820267149789785
0.0005810392072379845
5.744831049464364e-05
-0.0014691812329831173
0.0015514231329898126
-0.0018687474950526797
0.0015406188046510076
True
0.9479684075265847
0.8442117371255666
0.4822798046247639
0.22846775886315007
0.1162800566731237
0.09667767435229761
0.05219904611852631
0.02829176730977599
0.015372483705955302
0.009950530959156613
0.005601549926936759
-0.0009220962514011803
-0.000834723848089712
0.005340247936185295
0.01020481726869669
0.0187380741840111
0.027370336544149595
0.03785526501463221
0.05263313489290623
0.07035368608548141
0.09278455970568221
0.12208305469199358
0.11103341292435044
0.12379203272437368
0.13504262370048767
0.137811940896025
0.14255028595613695
0.14423644912088734
0.1376525782609819
0.12848780571548749
0.11352261160005984
0.09061182089393532
0.06467862589232647
0.058197427872987845
0.04597398923476971
0.0534533830564277
0.051783455988843416
0.04997767631710807
0.05624412266797475
0.05492785745368252
0.06492216303116195
0.060515299289601115
0.05620728811385432
0.04581219661232482
0.04795156304913397
0.042863322877275775
0.04103102277068263
0.05200583966829209
0.03770978734227298
0.03960538300096199
0.031256255143094214
0.03354561918689864
0.036700158116233214
0.03595784398977932
0.03867732963831756
0.049250013613268265
0.050669783207166454
0.05945121132697734
0.07690914796661276
0.07781976363505755
0.07881191167854384
0.07939143011645232
0.08591886352918018
0.08793915474380824
0.08241708370866538
0.07949120987708014
0.06603013389030374
0.07850778713597761
0.07176912607224673
0.07518648990882293
0.06444960752959807
0.06752681179838851
0.0723718322856163
0.076231771800409
0.08203828155834385
0.09301391868789008
0.11003708422153861
0.1394152270809423
0.17762937865454315
0.25190767368073275
0.44645154901284995
0.7044833887852718
0.9329346572523729
0.9995491518211856
0.6649711043003456
0.28380666114141756
0.11941426960100408
0.11637719539584222
0.09334848708490698
0.05826888514494038
0.03844022874709767
0.018674641831907736
-0.0020054557718578005
-0.0009658581026833576
0.0002302100881461274
4.687870707698831e-05
0.0008890538580473794
0.00012325529579849717
-0.0007720268375551685
-0.000838797842122312
-0.000669917171671453
-0.0005535739359952866
0.0006043794272552638
-0.0004617672570734254
0.0013039719216930304
0.00032177203823288854
-0.00040316883939055465
-0.0007919203890859349
0.0019075151550290855
-0.0010303216070650342
-0.0004632827465948145
-0.0016671008500626458
2.582441138862451e-06
-0.0006114359249451058
-0.0012087380613270823
-0.00014116173784618722
0.0003588700385183587
0.0010281656265423381
-0.002106988859084831
0.00021756137559410764
-0.00022145812795592088
0.0010659926808191688
-0.00086461160901777
0.000403633381142666
-0.001047513959816492
-0.0009014052377619372
-0.00031341180168669634
-0.0010935637939840865
-3.3750386576880127e-05
-0.0010619159652987225
-0.0009242111232037055
-0.0011865671428822045
0.00035557233527151543
0.0010193643427482124
0.0012432875720327224
0.0020030368414724904
-0.002305113020547614
0.0010568516493584489
0.0006694587792115843
-0.00012770412641446724
-0.00036706657682752074
-0.0021845993119781874
-0.0004002173768257195
-0.0016819595429924095
0.0004858744933653015
-0.0012609216977469875
-0.0006770390748750852
0.0005054561676376413
-0.0007877459321179618
0.0009123116596454377
-0.0001031823235478598
-0.0021497786800356057
-0.0009445521075349118
3.9751405972174375e-05
-0.00024766289908471835
-0.0008037204667714123
0.0017921895090263758
0.0007480942319338939
-0.001655060764227227
0.00045141013723045044
-0.00047873077402825985
0.0007015347171736393
-0.0006829389710948348
-0.0015623730585561052
0.0001372597595771332
0.0005514238572348838
-0.00037279042536708293
-0.00010746311804410139
-0.000986153080328249
0.00017219506439540498
0.0005433098437717044
3.3590938831549545e-05
0.002152489482599086
0.0009784901189441718
-0.0010316054367344857
8.271386191808404e-05
0.0009149071724165619
0.0012384511862068058
-0.0016354689488223089
-0.0011151562333441515
-0.0011542990231060714
-0.00011580355640540243
0.0004287111798794293
-0.0023072032149629596
-0.0012563501554713266
-0.0003435010225334918
-0.0017603332585030408
True
-0.001812105259968629
0.17522473487077342
0.29302744277335824
0.3960627047999778
0.4803423548242257
0.48224080097948685
0.47881554312135644
0.4797969299852346
0.5012381199776527
0.5129258778074295
0.5216953951801612
0.5115489107594127
0.5270862659458307
0.5379476482020371
0.5248842992884952
0.531025261459584
0.546660750079697
0.5607924630839594
0.5599595084025693
0.5516257679139792
0.5794576392861649
0.6079216242509675
0.61302453542118
0.6094280771510826
0.6577294718997758
0.6752724536012689
0.6974827297841227
0.7214995588985763
0.7631219414940178
0.8009092251966936
0.8126686788263304
0.8306144686768685
0.8591161313141121
0.8733650426211212
0.861059733810925
0.8420011343719537
0.8245720247143321
0.7990202512944283
0.7429705445365389
0.6780021226537154
0.6396760219140747
0.6144271424486738
0.5560600112104815
0.5396022423554655
0.5229256055647599
0.5175440591783649
0.5057566631602158
0.4922682621967748
0.49962696130648193
0.5072518523286068
0.5040902932084229
0.49004396519917404
0.48650424245440993
0.5098403196310015
0.5089674437740416
0.49488014151692694
0.5076866177834317
0.515837428249706
0.5045684604830932
0.49165560743253117
0.5048503008637947
0.5074095649909106
0.495412600131199
0.48682701474756845
0.49040159732041705
0.5037484509161083
0.4727528133243211
0.45965501294503786
0.47679796803266256
0.4797496867793095
0.47137350266680217
0.4599702877961938
0.46735161521092805
0.4836043279713708
0.464280405898627
0.4579573522280989
0.46316107161200143
0.4803645762620105
0.4803323268555317
0.4444635808358485
0.4582920929180574
0.46816103954176524
0.4609111192601381
0.4506672962166686
0.45790355258494797
0.4726408652180983
0.4614786326883482
0.4512779108577993
0.4650005245070017
0.47266770978260614
0.4617921183059781
0.45632499872028703
0.4674625798476485
0.46986622440547826
0.470772334366035
0.45561215231196617
0.46913109407147
0.4820410140286896
0.47313107416743955
0.4585431663177398
0.46924700497098504
0.490290083336311
0.48407523869353536
0.4730080987431419
0.4847578430733582
0.4856154338727431
0.4740198111906841
0.47842662037020234
0.4934580763830459
0.49063168733296114
0.4817522309635887
0.4793305587532942
0.5109217030676002
0.5423358671257132
0.5479587570423039
0.5486295211539033
0.5732462635404303
0.5994231453168744
0.5798254742048834
0.5452270253206629
0.5447205760567858
0.532728004676157
0.4940938605469057
0.4774696470654354
0.492327581045756
0.48776561751819836
0.4764262117066335
0.47027752637759496
0.4714174282351692
0.48303718815451974
0.4742269365544236
0.47463826258335456
0.5006514053214363
0.513652837663885
0.6149845024442125
0.8597349644776857
1.0009473975066951
0.6934985035513649
0.1974202318629096
0.025130434052888395
0.24161642776703204
0.3874013884826703
0.4738574422526514
0.51564394135776
0.5163425022571506
0.5272926976806931
0.5340397743495257
0.5296701921031807
0.5441074714005731
0.5717058768507954
0.5618374871149255
0.5520723556486511
0.5684809438814833
0.5807852424519818
0.5860703177784956
0.5834132502656739
0.5966855734920512
0.6223935123197266
0.6149921863047088
0.6194750072826026
0.6376537689409661
0.6649657466077225
0.6704865219662205
0.6728481976957887
0.705865503104653
0.7514792717136509
0.7747494962681544
0.7709768361959264
-0.0017228910649372414
-0.0003493290573646978
0.0002861812584633903
-8.393554148026638e-05
-0.0021787931732806325
1.0211822342106486e-06
5.796901606780651e-05
0.00085699484476855
0.0002629568440359051
0.0009822252439513084
-0.0005999522738779041
-0.0002024323318868038
0.0011159876585936607
-0.000628571697309097
0.000640533281192851
3.8653202425048895e-05
-0.0010054349606522406
0.0006860879135575616
0.00011133379810917696
True
0.14077787562111338
0.6654868919054171
0.7893791776489584
0.0882806814783846
0.001682052258464341
0.30623380103058273
0.4899950060141664
0.560343089938415
0.5398147286057015
0.5874356722433042
0.5886533876590794
0.615519761385787
0.6096261863410124
0.6294407196753258
0.6381903163293652
0.6385791136331679
0.6560361457522911
0.6928941877886797
0.6716080537656655
0.6993760181874342
0.69194423096667
0.6990419156781248
0.6579160972642892
0.726861351814857
0.7347937941888354
0.7545833626494527
0.7551200673779618
0.7624221955975227
0.774824400526476
0.8047463077935837
0.7836405257461005
0.8237232773994533
0.8411909007126017
0.8687126738417824
0.8680437641096495
0.887079241649952
0.8881771157461577
0.9427761208646678
0.9296764826583719
0.952024250210658
0.8955916837031603
0.8874843876878684
0.8048986015439239
0.7907211706596896
0.6912727109300157
0.7132472206758834
0.6564667658402574
0.6644729212783305
0.6219011821328012
0.6420095930789228
0.6300587927383409
0.6148328572710914
0.6361994960771583
0.6432535521328038
0.6149227170542773
0.6710968059505047
0.62323750771455
0.6571636949832665
0.6377440466835562
0.6862633296856631
0.6640747722472679
0.6925190131163872
0.6425389320585138
0.6559252407240608
0.6572251579421561
0.6780417937591409
0.6218746101005741
0.6311171751680015
0.6025378094900066
0.6170688544180045
0.5720071791977401
0.6128923536811951
0.5800883301373355
0.608965954077454
0.5608700727719655
0.6174788902250623
0.5605237208907604
0.6086890204694374
0.5316282690541739
0.5795522390217859
0.5830710640241473
0.5877459731381928
0.5678407225426414
0.5517996878974201
0.5598989206221411
0.5869884819423701
0.5306844073653708
0.5522864208791775
0.5516619906150809
0.5747600795470236
0.5585514391780103
0.5867882341796221
0.581355332387094
0.5798654013333967
0.5876309986507541
0.6360669743076401
0.5800569787152247
0.6493039842869573
0.6430121702028265
0.6645174702397598
0.6222154407317371
0.6431633872810906
0.6017529189693764
0.603290531078387
0.5680289684840061
0.6091569519514738
0.6208185642909155
0.6232305033189313
0.5379176374663437
0.594410213194727
0.574428591144024
0.5679120698066161
0.5233372891313814
0.5945256164084253
0.5658833461133244
0.53893284779874
0.5393643854646153
0.6068449001674242
0.5855587686729439
0.6308022664177785
0.7120357054090527
0.6775549121413812
0.4480164579592437
0.2796232215041406
0.3771908930175829
1.0002089767541922
0.7630963250625163
0.042406502703085304
0.19654383096416542
0.5667578591157054
0.5659646141142203
0.6304662956009037
0.6147953740066965
0.6584087671446168
0.6587954687876173
0.6782743289184523
0.7060825252280238
0.6839341390147214
0.6770322801282939
0.7418470042248477
0.7183808949770174
0.7274899300035556
0.7433185666452924
0.788022179065539
0.7756353979783583
0.8329528571202819
0.7895025232056412
-0.0001564686826764929
-0.0006583028505290889
9.752925019157433e-05
-0.0005227796001599872
-0.0005234646814664797
0.001377225549514413
0.0011622868782452827
0.00029541115805491533
0.00044158659025995994
-0.0009530680161714562
0.0020403858499912163
0.000215082375514998
-0.0005121645999192485
0.0006752561623928308
0.0002595954093975383
0.00023588077510739146
0.0007622729583957414
-0.0007982106060157253
0.0015146894565301842
0.0013294097416884693
0.0014057015696285868
0.000206012883828012
-0.00044878472060597716
-0.0001860287044729288
-0.0003552169561835573
0.0006611130949294847
-2.947161032072974e-05
0.0010183498266366595
0.0003789923387930918
0.00022364987991168954
-0.0003455891525137754
-0.0006882799360284869
-0.0006638030597941128
0.0011259743506836716
-0.0015755668251169383
0.0001239426293350063
-0.0007512346666888311
-0.0011705851323779764
9.8858459616792e-05
0.0002458616262115501
True
0.9999973642106214
0.8125434074489036
0.32693473588694544
0.07344045446813263
0.04913464918605906
0.05287213825618308
0.025704174349255975
0.012577229564701234
0.01612899293718285
-0.002117554894470232
0.004655661079109594
0.009756411199505141
0.013280304738674559
0.003757638770842297
0.010577269685805041
0.01076626662251803
0.013370013792142123
0.004549800824411504
0.02613628796830659
0.03293690657485989
0.034028301689415556
0.026808627435825808
0.036371677871427
0.046287932715210214
0.0498053159274105
0.059009709864913766
0.05693180393293634
0.07921302743459757
0.06885947075773717
0.05857542184949471
0.057785296702762855
0.07624741641389104
0.08414663122666599
0.09387745739201594
0.1065680778679618
0.11263127554622415
0.09927400201670956
0.09622003569029486
0.08693005322615198
0.09425849786906822
0.08728114894172626
0.08976280198337214
0.08609686125028326
0.09273922744093027
0.07840257199268703
0.09294472453721252
0.09644668222007645
0.10527734873650768
0.08915638696592551
0.09845142306670493
0.10009398936364493
0.10025518800077683
0.09404537061118863
0.09526603235495405
0.09667102236317575
0.09990943583201516
0.0911015459541237
0.0963051611644005
0.10239679238518178
0.10245448900921486
0.1010805689700284
0.11011374586859277
0.14452189894874246
0.16581249508523171
0.18446833569618473
0.19087866280184004
0.18638681304054136
0.1825045139381437
0.12681715621495418
0.11176486133884254
0.09289583265343265
0.08298540290557964
0.06852432515533788
0.05126576535327134
0.06427860195063004
0.06734961834610602
0.05370432109860079
0.04489848437851868
0.20993108122043747
0.5687944300106809
0.9620107165880432
0.8968377981766125
0.42511466582616675
0.09504253673786518
0.06888413104903485
0.0671514207719049
0.032903351003907684
0.023437800213078785
0.018457455220120367
0.01249781927223671
0.009052046725814212
0.015927518151130717
0.014054102461383784
0.013082932860424164
0.014548524682519876
0.02660272313060179
-0.0007357374744939521
-0.00113796778914041
0.0009414221019367642
-0.0015123662634710497
0.0014085622742589523
0.00035979099337972713
0.00011395120702293697
-0.000892843674858884
0.0013631875499929425
-0.0007814325930123686
-0.00032354147614251116
0.0017347291309633105
0.0008440670872580441
0.0013135894455520187
0.0003007146380347266
0.001758416096894151
0.0009035627723432913
0.0011729909649025208
-0.0012938276074938044
0.0003319343191928913
-0.002122128484944507
0.0012940605957999253
0.0015081943887762196
0.0019621932588300083
-0.0030676573274513656
0.00031719783277123453
-0.000839423206791258
0.0015144125403130885
0.0006039699078039121
-0.00012373267531272784
-0.0002062944287729648
-0.00029184534550121693
-0.0010668310757596666
-0.0008303808348956499
-0.0013116028246455244
-0.0012720443737514466
-0.0014481627523729907
0.0008382354527800232
-0.00011276574363657606
0.0001775620611161062
0.0013601154863240761
-0.00015551321865870643
-0.001147553375979949
0.000489077058994458
-0.00015200632072248266
-0.0007402816762820749
0.0004447627080752258
0.000788773548930527
-0.0011199068755261363
0.000415669563873794
0.0004901420274451904
-0.0011708941486004807
-0.0005769548019671063
-0.0010287141623465366
0.0006846335586183704
0.00027186384331914494
-0.0012754101139196444
-0.0009253960966710257
0.0008877784708453292
-0.00028920550846859016
-0.0009869714946108808
-0.00043621427144506606
-0.0016925220230970823
5.640612180815334e-05
-0.0013581574038810844
-0.0005240303696642552
0.0014129598266314266
-8.481801353159713e-05
0.0006979292322117555
-0.0002646549462016822
0.0010433386120531059
0.000836348495425727
0.00021458522041146723
-0.0006582375019859621
0.0015849913515609318
0.0016490503454160321
-0.0007431235394053411
0.001180107257295604
0.0006997420359572038
-0.0003404704107669998
-0.00044463199632158813
-0.0005104435117900941
-0.00031198545500086465
-0.0004127646894260258
-0.00014208188397105834
0.0006634136981439066
0.001349600723816828
0.0004246994418236437
0.0005593991992307018
0.0008816353342081061
0.0002506115105072445
True
0.9997368736194246
0.9524002192565294
0.7302888909785984
0.5454320776031086
0.5063282619822765
0.495462357089864
0.46471625318879883
0.4572120467731473
0.4546765635226599
0.4512967989444436
0.4435297634135517
0.44516227983328227
0.4425423571721014
0.43352364896859613
0.4365810818553408
0.4409556180092942
0.43669409022625505
0.42730881126175335
0.428351770414217
0.421310499356941
0.4094351472427538
0.39873303627696904
0.39002515110860686
0.384531083180347
0.375297494504771
0.3674189974776463
0.3660488922968217
0.3760137667316445
0.3936214350635542
0.41281221697302506
0.4303366722673874
0.44951745797015763
0.47104844068938473
0.48205492221595747
0.4899479687566141
0.4892405601918029
0.4909998243615791
0.4993084288308792
0.516761957393402
0.5509492054685116
0.5942376353772633
0.6562606350290457
0.7380567298621893
0.7209001612063655
0.4652741556140135
0.20399231500985845
0.08134759854589287
0.013021914248765436
0.0021381453361861923
0.03907834993505736
0.12107522685706475
0.20711508893889433
0.2787516953057757
0.3515893869626671
0.4084007803807053
0.47118723082668507
0.5576079340473491
0.6014323077548871
0.5912035447722601
0.5959853396607092
0.6071616318502209
0.6087945754465969
-0.000739014923628424
1.8808825400521915e-05
-0.0012010174057027968
0.000813419313824257
0.0006344454135387782
8.289962104322868e-05
0.0018158352291622246
0.00028823052911104377
0.00061632561026548
-0.0008559623429636549
0.0008324057081590006
-0.0010620094114753575
-0.00074635594120494
-0.0014144465039249458
0.0012708334132031632
-0.0007308520434365784
0.00012189641508084471
0.0009929654473681366
-0.0002098165234624544
-0.0014705173965901743
0.00048156891512655725
0.0008068282762821019
7.47263204460282e-05
-0.0011252724140726356
0.0022655845835020585
-0.00029814944241828137
-0.0012846840484670103
-0.0008753592003272728
-0.0016794944556297595
0.0006863231456922005
0.00022596629612000994
-0.0016056250709046579
0.0008938211207274689
0.0018030554721246916
-0.0013287425535238916
0.0007777021074374807
-0.00014052727960812405
0.0005362111642442356
-0.0004318339650311423
-5.950821159036917e-05
-0.0006346456133349148
-0.0009417532850607761
0.001303168002812957
-0.0006519829940154064
0.00010407158161526829
0.0006681213286766304
-0.0017542526623679398
0.0017700717335078335
0.000819297031758541
-0.0010512670674207127
-0.00022409114906557414
0.0014448377284449333
0.001232199725534407
0.0012176404513733966
0.0009409865776253101
-0.0006284800092172943
0.0015757553500682967
-0.0009620225629002805
0.001126140546578759
-0.0015740749228524717
0.0016650296262393748
-0.00019944046807045121
0.0006267387937731425
0.0009186245025726239
-7.274379566979115e-05
-0.000894317553329265
0.0015159618742964004
-0.0018519678769894077
0.0006041772424397328
0.00047821582271773025
0.00047287971748743817
0.0001387133161658387
-0.001193397660387267
0.00222748748791051
0.0003013393436948516
0.0006100494471150571
-0.0013287454843176297
-0.00036015625706927704
0.0018373445461849105
-0.0017786293361635765
-0.000240877437454954
0.0010202251088937758
0.0005496262297178669
-0.0004506345222960428
-0.0007147128935273924
0.0013759117065370206
0.0003393890507772486
0.0009087288846371512
0.0003126307875204065
-0.0011532834690755084
0.0017639615550927535
8.048545136303062e-05
0.002151169044178416
0.0005251930298216269
-0.0018551297177569128
-0.001104838192544474
0.0006462140888534067
0.002458687240114111
-0.0011914276240749526
0.0007496734896940033
0.0015566374363908755
0.00034340387134804736
0.001074211658594879
0.0010192364444284346
7.046361049785421e-05
-0.00016516785726813089
0.00030183876605400215
0.0007041767423955189
-0.0007652160881010779
-0.0005205305102387096
-0.0002385263358780848
-6.59033332248849e-05
0.0022945574687409827
0.0008716028745147066
-0.0015510478621799863
1.0915388631595347e-06
-0.0013532049785464392
-0.001572706899518994
-0.0018523762156952017
0.0009158712026966021
-0.00044618935623823514
0.0013553922279165844
-0.00028864751501431744
-0.00014605550748316887
0.0011118378600904646
True
0.9992340900325017
0.8404120272513057
0.22724996698256733
0.04190551421694064
0.26139334294834105
0.34207639094660486
0.3161377607591079
0.3047400982385552
0.307608716837187
0.31850919411187567
0.3158378264071837
0.3118620327485929
0.30940246960463674
0.3162302259443078
0.31915296152501976
0.3143610414262594
0.3122274569981557
0.3252970669279782
0.320694865461988
0.3159581429324813
0.3210541488119295
0.3235415244562022
0.32319207875208344
0.3208212955778423
0.3246730366388906
0.33003250020350994
0.3297297057188499
0.32884424762680664
0.3375890956498355
0.3428964640634238
0.3413590671804704
0.33968412997369835
0.3433510511669054
0.3524225740666695
0.35745140183613067
0.35359711101774244
0.3607148407126178
0.37450857724020875
0.37289034883594946
0.3681299983418608
0.3727741220586201
0.3774155552661363
0.3846430078094172
0.37694250838373733
0.3628756020339413
0.36020042914000566
0.3468890703447164
0.3202870536413469
0.30698810755150724
0.29884950437256114
0.29267092368751196
0.2770953285341123
0.27168931690424114
0.28061070493142487
0.2733797813870871
0.26756336237245343
0.2649299434283318
0.27294641478378445
0.2808685948308866
0.27917642273524695
0.2819357140240758
0.2903689331419831
0.2893050321205677
0.28456386558014013
0.2914968480944896
0.30034252364300323
0.29717338339808624
0.2901928402998125
0.28539488142621283
0.29148044828934283
0.2938167277902154
0.2829927008523888
0.292204238945783
0.29503637711451747
0.30626134316637954
0.3063690967523032
0.32164710139127445
0.33653271980786065
0.3328756821674143
0.32763624312022605
0.3255743794149144
0.31470536977852126
0.2950289545968038
0.26544617239224866
0.26942780186358506
0.27808126463398514
0.2712470546142741
0.2639420985153786
0.26163022737132924
0.26774396735272965
0.27084513113017783
0.2607378692828105
0.2687449451511724
0.27348412819236495
0.2757027814643829
0.2772779001849647
0.27785877192495706
0.3353015049183253
0.530102270612655
0.8925840026038158
0.9744428244981516
0.43944633110963127
-0.00034060063114068446
0.181250141830358
0.32037623120278214
0.31130961595028944
0.2935801588175467
0.2871631442665534
0.29184059763921516
0.2986058829984195
0.30156349217293116
0.29871525265270954
0.29928209181408094
0.3017200043953949
0.3053141746199675
0.29552536875196234
0.2968389300893587
0.3029398018000621
0.30761229374489973
0.0011552934812867632
-0.0009711708184103534
-0.001746358571509375
0.00034631647940692545
0.0004579317539305564
-0.001263175778229612
-0.0015108685380896298
-0.0007626417372978032
0.0019477410556585965
-0.0003749661952707759
-0.00041993458004851384
0.00027033259493790463
-0.0014556344853900534
0.002479817331190383
-5.2250560875210855e-05
0.0005492350844325754
0.0006694718383131226
-0.00031894000176014415
0.0006289544779509937
-0.00033943306687259875
-1.038039594886551e-05
-0.0006277756106181608
-0.0005221750707783856
0.0007428259187467005
-0.0003387484166345438
7.20616372517252e-05
-0.0012504272681122515
-0.0007194741298310718
0.0010610245442623152
0.00041007217919463405
5.825024924558701e-06
-0.000151128529220521
-5.0102337762800336e-05
0.0027007244800866747
0.001236027006019275
0.0010750820899005182
-0.0008087552816366863
-0.0023881285621117935
7.730291688293679e-05
-0.0006000173293631566
-0.000215692079242203
0.0020035712976364754
-0.0019197091779490907
0.0001436962587811468
0.00021110971493882452
0.0004938626264410612
-0.0007064097698777871
-0.00018717898092904367
0.0007163946308986338
0.0005931835790893099
0.0008759022283148857
0.0006787564911386751
0.0006613564120011347
0.000210609459784989
0.0007213819292480157
-0.0010072851815058831
-0.0006503680882324263
0.0002778108482072013
-4.5563796338882664e-05
0.00016640862671520712
-0.0013816960120566287
0.0003707201184941427
-0.0004926978535339727
2.4409791677145853e-05
-0.001636017079649933
0.0010116461669274653
-0.00023498074522139412
3.393919965198987e-05
True
0.9995732807667443
0.8145826276007637
0.3953015998284437
0.17493536387860334
0.13060360069959948
0.10836731706768293
0.109800424895012
0.08060166574331329
0.08237800844386463
0.06527921229175312
0.07310532784226734
0.06104288451540017
0.08086433198958462
0.0665178988817969
0.08405878676271965
0.07519059971167188
0.0987344476846935
0.11009471451419602
0.1105807186757972
0.11469997007082032
0.12717628343826717
0.12263238923353363
0.1517134595723592
0.15881618454262353
0.18710822194123566
0.19139716188131872
0.22637418954492913
0.22294594609675006
0.24458798142965804
0.2743633504090978
0.3000047535361253
0.2983335460791635
0.3147505108856213
0.29410494030033957
0.28326557685457354
0.2427483189159836
0.2282149479756501
0.18574928548185152
0.14881332712831347
0.1080126684036748
0.0938157971981769
0.07942163138189488
0.07402818962639496
0.05375733713691837
0.055934478253661525
0.04533377034042381
0.05361596361343096
0.04252616676399938
0.06064422021836637
0.051678211249617995
0.06560570324779111
0.05044989669055779
0.04974815158146521
0.04949932240355523
0.057380470691591336
0.05794639356139403
0.05756249074911557
0.06821326846070842
0.09312742665571387
0.09396628994751778
0.1300461167522585
0.13712456193747966
0.16460216248887752
0.22430894786585615
0.2882523818416559
0.41010163504090824
0.5246248139680946
0.6261922640971866
0.7701616590726842
0.862310023265079
0.9753852763079227
0.9816739259685097
0.9418796375945008
0.8742585733940168
0.8371682532850866
0.7729507220310471
0.7505652641693757
0.649853671705346
0.4643609601947697
0.18710578186004284
0.0024720394747320125
-0.0008444058046316908
0.0013392249917392222
-0.0016953691120642753
0.0005737003866488552
0.0009445183883157635
-0.00018666490944133516
0.0016293819106944646
0.00021789182893733986
0.00118556992112889
-6.827929585541366e-05
0.00022544419855832749
-0.0007275104169408821
-0.0006124041396080221
-0.0011008606551224287
0.0007589474981519868
-0.0002869767232629724
8.659539266437929e-05
0.001105723723682013
0.0014470956095635522
0.00021311099911225327
-0.0013129017883483434
0.000673906092759237
-0.00040873760388701705
0.0016750816808486857
-0.0006809768195835682
0.0012612698948485442
0.0013498871072477661
0.0005677954511939254
0.00012385532260820775
-0.0011612713542457312
-0.0006407834380349158
0.0013931208224138062
-0.0023665985203963867
0.0014702134133289296
0.001916233839314357
5.167394281139001e-05
-0.00016012857870109174
0.0010506520149639092
-0.0004782721874258875
0.0009187487664966515
0.0015945885169653777
0.0004403359957438235
0.00030663018195582905
0.0010722638416415385
0.00046543848739602164
-0.0013300468917308613
-0.0014840596171147176
-0.0011538197379905662
-0.0016235124503257902
-0.0008016766084964259
0.0014970024893929566
0.0004074701589587627
-0.00016176587419080343
-0.000808001730740826
-0.0005511159703774628
0.0006645849969654689
-0.001368791645782893
-0.00015663298760715675
-0.00035449200279726506
0.0011957685588998715
0.0011002504562723672
0.00017322084206063308
0.0006685365693541304
-0.0005931522323555222
0.0024160681538943785
-0.0009323301700302023
0.0005465635350517184
0.0007047380435486448
-0.0001920327503129907
0.0006847969796794799
8.944489658901372e-05
-0.0002369160719825896
-0.0010994695058946342
-0.0011472106593602826
0.0008439199457118923
0.001659052248754202
0.0002531219440579547
0.001251985398124256
4.25101448515248e-05
-0.0007738630131351164
-0.0009898081848388443
0.000993634284940359
-4.9053388212789104e-05
0.0004458045111816554
-0.0008677900375065065
1.4473701941276097e-05
0.0020716788180694104
-0.0013006203251179386
-0.0001656374209735993
-0.00011253743398340403
0.000475577623298703
0.00047588330668841774
-0.00031467924190454
-0.0006950268065082118
0.00047845819269529377
-0.0009395821676784018
-0.00016191122489640742
0.00011994577442914203
-0.00015140050784001832
0.0005383792405299665
0.0004961526530202953
0.0020679520365428253
0.00031510786293734486
0.0002231488277071672
-0.0007143106917260453
0.001385887099768555
True
1.0001560783208223
0.8605908693795028
0.5130514127540045
0.12318308484341459
-0.0005306842194207466
0.13883341337041885
0.19499003912202334
0.2298931781237618
0.2787490462576195
0.3004814031059064
0.27457983523247015
0.2723080409121293
0.28316286119893386
0.29008878806751603
0.26189050586258666
0.24806271058866103
0.2746806534174915
0.26908380829809064
0.24764980759465152
0.2476435134224228
0.26471077169589097
0.2564757527369201
0.23442085759103806
0.23012614379666219
0.23612734696323615
0.22997104940389906
0.22187640833643393
0.2226398158535633
0.23371846376379155
0.2398668458561715
0.23106151949061005
0.22998494931630017
0.269507545907616
0.2860915386348716
0.30896024172555925
0.33012190777092865
0.3612284731238891
0.4246412464083586
0.4605946456122963
0.4771967306672794
0.5087597111846313
0.5181126128128596
0.5056062609166557
0.5007250172072916
0.49978331697130496
0.49907707227099823
0.4739266123272538
0.45223521483138424
0.45942613294165896
0.4546716276686472
0.4403850342919236
0.4252091411813606
0.438680081994107
0.43574336401562364
0.4300051889683457
0.413826619876443
0.4193572561087943
0.4307890647243988
0.4093403434889378
0.4180458861635963
0.4293681185939392
0.42585501696271816
0.4287859309692208
0.42955696922983955
0.46013449110449633
0.49497830431164325
0.49835232466570467
0.508526251077197
0.5376864854051627
0.501294435406166
0.4461318797472875
0.43836699402398377
0.42631319659061256
0.382942522364871
0.365915564358242
0.3594649571929951
0.38154860605583574
0.3697935994203172
0.3640685431673899
0.3617831083835277
0.3663402369247988
0.3739139253937472
0.3805692163365455
0.43109084995165625
0.6580997238850251
0.9758085009199344
0.9103572062642161
0.47387109421980916
0.01713266435299843
0.10484101631019864
0.19432369023469534
0.21604410641495336
0.2614481856824117
0.29215084477622
0.283740526867481
0.2552163390804725
0.27794457030574127
0.26791054291148214
0.2611852186466668
0.24923401113189017
0.2696389841982685
0.2596697103426286
0.24782188215063247
-0.0020424966225784653
0.0002298338748697987
-0.0005192541836510395
1.6579703135631725e-05
-0.0002283337758157215
0.0008168490223825381
-0.0015207595054350044
0.0007504897503754263
-0.0008075725482114011
-4.664798676644256e-05
0.0005819551392195154
-0.00036183657294202665
0.0008464573361484843
0.0012997630517682336
-0.001499055548885412
-7.250710014239775e-05
-0.0008190623533478721
0.0002840453813029992
0.001078274912594925
-0.0012175315473850665
-0.0008441607496442052
0.00029359409450242086
-8.702619821259032e-05
-0.0016847835758392314
0.0002455904884878101
0.0006844396949997732
0.0006270254950223841
0.0012421088872750436
0.0013219700161177846
-0.0007091496407516432
0.000130839392016205
-0.0006955767339614286
0.000944179602443147
0.0018149417242365518
-0.0008997190804013383
-0.0019258168052653042
-0.00044003021100315657
-0.000668177896937672
-0.001207103938516832
0.0002242808860009833
0.000978983029549121
0.00021947659819793777
0.0017783702483541938
