0.9493008886813633
0.9194330816093892
0.5512257233198187
0.27060345021090243
0.1319769106906161
0.12240845992300133
0.06724488670090809
0.05337832684954032
0.017441145461005822
0.023538036021659322
0.011957721165500158
0.012166817390900643
-0.0003768532177843304
0.01460745944046075
0.011236079795728425
0.02103491033796688
0.018831011507856436
0.026999361662240224
0.01814042491894155
0.035438933136006455
0.042548093482865604
0.059150859655967544
0.05381065094389109
0.07027169100868987
0.07137658528358104
0.09049174607794759
0.08077545809636129
0.09766412835005919
0.10496864788006399
0.10952999088065137
0.10397942120368256
0.11140873241980041
0.09753227556194172
0.08829350930934866
0.07742640011133808
0.08012233027070867
0.07767323858149619
0.07897287165466536
0.08002391510580649
0.08347068012831199
0.0710594320034268
0.08171777198502142
0.07406615149521806
0.07410196732472789
0.06650608559329738
0.10140325588182318
0.10885160483453399
0.12736672127059956
0.13533562273416777
0.21524503574899895
0.4133427892003268
0.6555270270139586
0.8910028767432696
0.9992691143836177
0.8073797122158818
0.40444211529211865
0.1842564341948605
0.12764912385505867
0.06821591749492015
0.062224702813763896
0.03737277238706134
0.046148175372173195
0.0250561073263379
0.016301001610734247
-0.00016962541254605048
0.0007820938300085469
0.00015127541260413242
-0.0007576504302841713
-0.0004414031387473386
0.001486514059907991
3.0316571667494484e-06
0.00048167779775981146
-0.0003637240827034838
0.00010225044407022028
0.0008088183750681225
0.0009277373547539409
-0.0027729225747842204
-0.00010962309328230986
0.0011231322449717321
-0.0007265805685274682
-0.0015001922524973752
0.0007951545866409119
0.0008626977994514027
0.0018225858048939786
-0.0015201627297787123
-0.0005623914259775941
-0.00046465933903393387
0.0004519389449131122
0.0024011972563412693
0.0013437845450452056
0.0003238938953369342
-0.00012668537397311612
-0.0002004762875142361
-0.0015071753144634994
-0.0009597702539990461
-0.0016824087686817281
-0.0009237280147513532
-0.0008111048616549517
0.0007415357066859459
0.0016847298348138793
-0.0011281579927158601
-0.0004024764900421803
0.00084732851499593
-0.00033326361955772824
-0.0008007810852908283
-0.0014373684874046124
0.0013207122841021011
-0.0010665201845952393
0.0011265989324157196
-0.0013696827804046928
0.0004496221680505598
-0.0011770443232753678
0.0008117349534334553
-0.00032946741375040607
0.002229521995502607
0.0010128135292768003
0.0004671298895103684
-0.001126813118917743
-0.00019610367404041099
-0.0010558629050145482
0.00038396122050862486
-0.0002247168567227326
0.0004089801272130816
0.0009120582449665372
-0.0023105533472967755
-0.0015837687964471527
0.00032675070837476553
-0.0012438234422155118
0.0003060935594350963
-0.0008503257553745874
-0.0004773791060069302
8.245543456060371e-05
0.0015931907738915626
0.0006410541082442811
0.00012297109599238975
0.001622779955004655
-0.0025890364118456256
0.0012833059382220712
0.00035951803255354224
0.0003353092108581732
0.0005724083465847137
0.0003739999138407385
-0.000841293080390501
0.0014871285721685533
0.0011748407839647296
0.0007473780973731784
0.0008255131167276518
0.0009625980800820176
-9.349828455001756e-05
-0.0005920218940051544
-0.0009243076978201425
0.0003939249579219119
0.000252553132354749
-0.0021798844155326126
-0.0009427294944903943
-0.00033051440884764645
-0.0014450997985218943
-0.002138312165865396
-0.00019810297814624233
2.5108526332535014e-05
-0.0006615500627904012
0.0006833052228449539
-0.000650983095940587
0.0008682195480235827
0.00018316294657409027
9.35127775849685e-05
3.45466303267762e-05
0.0009764868412384543
0.0017939713003166146
0.0013045647407592235
-0.000629025112987959
-0.002576414599504264
-0.0009367960669797292
-0.0005955758305362176
-0.002614495874824765
0.0007733705724184274
-0.001715884022944557
0.00018602566345965002
0.0009756890958472046
0.0007568806680614946
0.001059646019327737
-0.0004414287342968377
0.0004056350835943009
-5.649503318162207e-05
-0.0006121539026901398
0.00041618734158214304
0.00013975963319334676
True
0.9986598585687381
0.9033636348231008
0.6935380332482249
0.5096834589577541
0.27757511315276356
0.11694589740376636
0.03748608839171259
0.02579297651717073
0.03958024039823342
0.0751900959689164
0.11271753251166447
0.13204582243883628
0.16585915373081322
0.18584912172912257
0.19052496400813193
0.19091731265234094
0.18942744841501705
0.1857844885685617
0.17944887295323014
0.1741873347727321
0.17473514727915834
0.17112038491943202
0.16505086947531308
0.15894763307056728
0.1622583705083001
0.16324348978400077
0.16693328213305716
0.17759461653797579
0.1884884881287344
0.20326398934109435
0.21503801174872456
0.22297719646954062
0.24577535601061617
0.25664470854829535
0.27447449569584165
0.2888017873474665
0.3026623936831199
0.31752283960218264
0.3330752929834152
0.3452784429071715
0.36233521537219326
0.36956429176657124
0.3694527264028545
0.3726774086739376
0.368486208005851
0.36565257637913345
0.3603965754246479
0.35557490981538337
0.35241092994114936
0.3592138061868396
0.3559429167443464
0.3604167258792537
0.3500535085491274
0.3486998901413362
0.35628564260734535
0.3605926847911897
0.3600060696038712
0.35635937193515294
0.3558421139890288
0.3599011596801362
0.3617231659745226
0.3418163069772063
0.31003455752985093
0.29329748794258853
0.2745113748913759
0.27044758519815904
0.2710267968859397
0.2662450606267914
0.2674725748439216
0.26599336619089003
0.26694808980851975
0.2704201444010038
0.2681167740682367
0.2744781912331174
0.2641269830396315
0.27219855414989663
0.2749079230874386
0.27887932548703315
0.2763496696434653
0.27656658962577124
0.282863950753986
0.27356417351620066
0.26522254714564825
0.28139896134155207
0.4179555089353816
0.5761848435877311
0.6965191846965093
0.85797914563451
0.97743800974732
0.9801263336470815
0.8688600145741057
0.655705210551044
0.4756271439445846
0.2439946596377492
0.08099493056468982
0.008287331798540387
0.0004556722056918014
0.014913249549481804
0.058628117390487254
0.0952721065731816
0.1088456921016528
0.14559034531330234
0.15665730572690892
0.17035275368037675
0.16944720852304232
0.16349079615879344
0.1547252009476387
-0.0004195035196066005
0.0018729751848594893
0.001036152685647586
-0.002167344748449666
-0.0013998559292239024
-0.0006215159972898998
0.0006705044040015589
0.00027403978613891537
0.0002418450493875529
-0.0021313245324590677
0.0010946155437982752
0.00038233912584904563
-0.00044641316061515556
-0.0002708189827704703
-0.0007070741577586947
-0.0015848492499132495
-0.0004927807180501032
0.0006843651048726166
0.0007034053763393122
-0.0007537687320343493
-0.0017934199929203493
0.00022439467881987124
-0.0003350973283156356
0.0016169404376460677
0.00010859225703526767
-0.0006960714164554922
0.00025735360230541647
0.0006020675236685064
-0.0012067582850077477
0.0002657385286633047
0.0005941282022595796
0.000872767390514141
1.7378105798828254e-05
-0.0008412947253406098
0.0012917477510819523
0.0009742295636266205
0.0011442610466270953
-0.0005735507821988963
-0.0010685451994176035
-0.000772005554845308
-0.00039850802963344067
0.0008819065885517647
-6.417173706050736e-05
0.0009485765292890491
-7.900697918371019e-08
0.0012127811119496032
1.9965006980308407e-05
0.002240413793456345
-0.0021612021979255385
-0.0005050257249494543
-0.001113418340359482
-0.00021646696808224025
0.0015035620834969452
-0.000703394601742667
0.0006088576274525874
-1.0741398751289908e-05
-0.0007214578585334347
0.00042350703275600336
-0.0006589592379112956
-0.0006108766602614717
0.00028011909789038087
-0.0012760999594988868
0.0002775689168886653
0.0005347797918318699
-0.00045746277885154907
0.0002114784334097403
-0.001261154220798965
-0.00020073304679804052
0.0005782084879743108
-0.0006854017309060964
-0.00012117287583447379
-0.0012796303418019278
0.00198407161601236
-0.0006259164333223613
0.000936901656669088
-0.0009530086750752462
0.00041773162891038554
0.0014591002407594704
-0.00022264434291131678
0.001038376032691687
True
0.9888042298675913
0.9850948159450849
0.5944404856590748
0.08041659704802816
0.007424100927609433
0.18363876351852834
0.26505715161255045
0.2510437617179639
0.23541367348917805
0.2411859311072041
0.2442796107855051
0.24949774244361353
0.2437485571956494
0.24254021841310502
0.25283186894536636
0.2501888407126957
0.2481045739201956
0.2516473258263223
0.25422731149008554
0.25944955823515226
0.26212049719662056
0.2623084993965615
0.26805094444673794
0.2806021171508015
0.28136487305597446
0.2773797796849152
0.2929343220783319
0.3058254182649255
0.29864115432721755
0.30204908264355085
0.30861426203751213
0.32049344997804036
0.30805759643301356
0.2940657099949651
0.29376902589106
0.29120047210869904
0.2764942970948768
0.2618575434081904
0.262455147124657
0.25806139683313545
0.2522083216800553
0.24481342671862213
0.2529364109333278
0.25185870926461146
0.25055957543733437
0.2437957220537817
0.2600100883791796
0.2577718710113462
0.2540622148548844
0.2579492195041771
0.26192929006552557
0.2639810040561949
0.25655959880338397
0.26178592726946764
0.2618719648246204
0.2669777407116574
0.26418856631804616
0.2647767273490387
0.2603048522922998
0.2657430130904464
0.26190239163101203
0.24641154731230924
0.2550641362608971
0.2596734196840906
0.24895466663508092
0.24365159666663203
0.2553270013012435
0.2587640270112067
0.24959570027410166
0.24842666392492727
0.25673689390976573
0.25713116502281735
0.25158530977439114
0.2533007823150883
0.2507875654612181
0.25665110614060155
0.2509055518132423
0.25193722815110475
0.2538464476693439
0.25884669410464844
0.2595421068986202
0.25933600540028123
0.2672641274838143
0.2811705579917271
0.2830281844742989
0.2896215108063553
0.3177953971035031
0.3162082510220792
0.305775443548507
0.2937941568636129
0.29077175275157996
0.2795857655275369
0.2671085493749938
0.24594080800855095
0.2442458024058942
0.2556519329413893
0.27061972108213006
0.279447997381368
0.29140824767719103
0.32543476608251026
0.34560520637786774
0.38004663623290624
0.43980882154386064
0.4949456542806745
0.5210071404587022
0.6228455603609825
0.8276849287393198
0.9988675540064942
0.8749670571213174
0.42808075830271497
0.0006144956649742768
0.05866480629268975
0.23965477754150946
0.2760614545527646
0.24567920926353917
0.25203066363791043
0.2599729570434375
0.25775815013147707
0.26093843085812257
0.2719995110953389
0.2653552284109852
0.25546778597322395
0.27035492482603807
0.2706742673840786
0.267072822849477
0.2621134446534414
0.2747725398018875
0.27798177102498445
0.27658362825471433
-0.0011378534894512329
0.0017415329917098103
6.029170262040934e-05
1.4902128446198961e-05
0.00030847622963853276
0.00022877905181923103
-0.0007683944204918155
-0.0016445646373770793
-0.0005967347889247916
-0.0008207939687344425
4.6680308568866897e-05
0.0006411390495550779
0.0010470926643292781
9.715547161554054e-05
0.00046695377502138836
-0.0005222528009291141
-0.00014468189980059966
-5.702312856414259e-05
0.0006924757568268241
0.00015166461680884017
0.0007772332786907649
0.0014699192246902663
-0.0023682553687575983
-0.0002873497714880882
-0.0007420433879852265
0.000771893550819288
-0.0007360656046978077
-0.0003819429367776615
0.0005429759775858019
-0.001990014645369878
0.0005375999000726041
0.0001580074255811469
-0.001257056475031749
-0.00019109016292243906
-0.00046608427423794075
0.00029467250736576886
-9.720396571369719e-05
0.00025209683441665035
-0.0016290624363168467
0.0021242480638166104
-0.001486631486770459
0.0004864631478698331
-0.00010864502938865969
-0.0011218819717976787
-0.001193365804928723
0.0020883746895639897
-0.0012638515095374648
0.0010917989967387323
-0.0008387590485758505
-0.0005953477813653517
6.287337444978153e-05
0.00024811576361651207
0.00047262417096160505
0.0015793910616590193
-0.00041918915359500844
0.0015264630660260386
-0.00013098083215355944
-0.0006569332551740806
True
1.0001516423189363
0.8480164589931972
0.427940780142393
0.21070338607810837
0.13008598628590146
0.12353295087683265
0.11143172900978
0.14632157426215822
0.23102243807139644
0.3732135042084949
0.42226382139162477
0.44054403622148086
0.4797342822660248
0.4770854596709805
0.47224038953039027
0.4731156693392255
0.4712053271211756
0.4574505582935856
0.4340336570024608
0.4298051516990956
0.4317429372377122
0.40958619698797255
0.3926418805194964
0.37055939961234646
0.37270493271867344
0.36362624073796934
0.339368940003882
0.3443865424336741
0.350326475899306
0.3623032453201271
0.3317275007254719
0.3723675863247347
0.38695854180675077
0.41300066698299226
0.424734296059136
0.43977425028294853
0.4611342809005834
0.48718831534366686
0.4762557346062805
0.4948851386360418
0.5075477161616785
0.47833673877784993
0.487381268290083
0.5005711695833552
0.5157835290496801
0.5029792119658124
0.4982542197201739
0.4752356552338866
0.4662298250097568
0.48887939920254353
0.4726329059369326
0.46717626901352555
0.4720681229941464
0.46419651698103237
0.47107338786269704
0.4625216973078691
0.4419852644912431
0.44937692084255443
0.4609143940225402
0.46101197645729636
0.44748390171744923
0.442681843212818
0.4492515166501204
0.46937188595577145
0.4763974591353116
0.45393766013116477
0.47389156783472963
0.5038031240502993
0.5104471412142408
0.5051205349871711
0.509836640915259
0.5417632896500412
0.5397703355488532
0.515020145974133
0.4947323146561851
0.5423352442394834
0.5658365908342636
0.49586060948772204
0.412246865787039
0.4436179669510444
0.44230352771053943
0.42166708200557684
0.41619775617889193
0.456923647944703
0.4403217222705803
0.43567899879819305
0.41569329485592565
0.42363116751801794
0.43718508683047064
0.4086625018912541
0.4120869005461534
0.3874655990411188
0.4158397550615294
0.575133141876321
0.6370466185014402
0.6666061037391531
0.9336720526027682
0.9959601885781494
0.5755669015629553
0.22579809884733734
0.12006249042761737
0.033286319483959353
0.0218845541919345
0.0012107387520827939
0.022226984889444735
0.15570813335350078
0.30375997825523393
0.3769044986006043
0.3914454477855919
0.39723119936022644
0.37440843026037535
0.4201367044698842
0.42410540738358704
0.388825139930304
0.38019880130842826
0.3935382516921104
0.3737916912060463
-0.0022388297638407566
-0.0012115153139880656
-0.0011431210632068737
0.0010301078300048359
-8.35413744020262e-06
-0.0005995728695926464
0.0017499347212647698
-0.0013426677604917799
-4.1824909386980695e-05
0.0007019891613940651
0.00010045016805579864
0.0006843162547239386
0.0006235531342262549
-0.0009309240177128727
0.00025420170729634146
-0.0004000610526318833
0.0002750612331982223
-0.0005055212795433653
0.00017482197497692528
0.0007758866260388845
0.0001263432958676378
-0.000969669606794514
-8.524461784230761e-05
-0.0007769599886674782
0.0012509854490318332
0.001037061196064466
0.0011322160636802704
0.0007640392070716627
-0.0007662292335445705
0.001335625490808504
-0.0013518012101538918
0.0006290610715663312
0.0003606647618061921
-0.0015478073509879408
-0.0014524169976883384
7.237777063126596e-05
0.0004531921346555884
0.0008443462748004725
-0.000725341257744557
-0.0010954349950028268
0.0014146894454265344
0.00023562002226261316
-0.0004599505969272495
-2.547556644318824e-05
-0.000712737930508421
0.0003566872014544048
-0.0009183389521314644
-0.0010721244205930674
0.00015164937350222935
-0.00019481801348833006
0.00014012349533063388
-7.145554840810021e-05
0.0012839423990863605
0.0004088697476190601
0.0017911832173569538
0.0010253005555605455
-0.0016517555848410284
-0.0007211313984691452
-0.0004280521929990124
0.0015102754174083832
0.001262937641078445
-0.0010206420399369732
-2.6617250940354314e-05
0.0008708290833120197
-0.0001850651687644209
-0.0011426981861022763
-0.0012079592646114697
-0.0007657478409962712
0.0003134237854310933
-0.0003244043546295659
True
0.9998622260288179
0.8664644312284403
0.5154325565994883
0.25472465279605416
0.11397071840924583
0.0807893286438807
0.09280485408558646
0.06902755533579605
0.08013139382062681
0.06215946752982071
0.06636359245467571
0.04818992599617108
0.05408517354657554
0.04443251280263318
0.04249958900666412
0.0247661095250568
0.02578590783705357
0.016017598015264048
0.024057336951466828
0.008983981710235109
0.023015791064205784
0.004228493006313095
0.020076931751439896
0.0014638888275810239
0.009993997448665826
-0.0010932697684432411
0.008516277082939587
0.020780971045676833
0.028071127577364303
0.014394382996756997
0.04872609644586639
0.042163528761211315
0.06725385200986732
0.08084226804731329
0.08717717385693566
0.09650490352351769
0.13343073310563572
0.13461717571126225
0.13537982253950553
0.14042633475561786
0.1576896120443901
0.14898030823875527
0.15633056233959605
0.13285598627241016
0.1547429825468799
0.1438866139746185
0.14111023276323315
0.14514495244650472
0.14799109556851722
0.1211837235606066
0.1329657362279838
0.11827610982453712
0.12330022498199716
0.12242808191519679
0.13116914632268611
0.12265107504814247
0.11922534741035373
0.11181010047676225
0.12530241474087192
0.12129278222152622
0.14247341530293414
0.12897761010515715
0.134062514041993
0.1233802639488741
0.13681820947778714
0.1377555214261557
0.14344610869661295
0.1309143667792492
0.1488424065977228
0.13367054485104427
0.1260627463112738
0.12295904185324
0.1344742055502557
0.11783033852778585
0.13762399916830761
0.12149661459757644
0.13587447715512613
0.1362352821787074
0.1487222975399096
0.17057564653518836
0.18194104167328268
0.1651550692630355
0.14812904260175147
0.14068866401118443
0.14451168745413415
0.13068502959819023
0.13979654571812042
0.12866475675165648
0.14855213761670236
0.15386617827291824
0.189954225650159
0.5510114234981829
0.4516689546360946
0.28773562171142925
0.2623653917122114
0.2502827034723446
0.25183338329031757
0.2211415083819708
0.2154328677483901
0.22701954634249485
0.2665240490076554
0.24190549265322261
0.24856748405792053
0.2953391407785406
0.3035799491560482
0.22043975818415854
0.12102015260073519
0.03797293426903653
0.07623663494624734
0.08690102093955639
0.10670189949343732
0.10381069841806483
-0.0003155070648814285
0.0013733080146658392
-0.00014798685227215548
0.0008502567879907909
-0.0007593660977174368
-0.0013743854746674946
1.774826408277901e-05
-0.0004821525464244898
-3.7056388653572743e-05
-0.0013396054897116029
-0.000625544318839524
0.0004160502887044469
-0.0010735265353860504
0.0024922515167795103
0.0002439062908888311
0.00018651338251326804
0.0003340214644496907
0.000728222599310446
0.00017506402222726642
0.0004359777445190364
-2.4423662357995244e-05
3.9217174525986674e-05
-7.424870508007958e-05
-0.0005674404497997158
-0.0003182138642850865
0.0010144370119723487
0.0004100642438652512
-0.00016276734492709122
-0.0005468787570872801
0.00023901877547316357
-0.00026443431975766194
0.0005041790587262101
-0.0007787141291208784
0.0017992379090233997
-0.0025648341399176437
-0.0018481744559078355
0.0009646051108084237
-0.0008131157314013081
-0.00020385456276265058
0.00018891934256262815
-0.001483576382823664
-0.0013359908836385363
0.001350644147018291
-0.00037302340922632546
-0.0016193798838203643
-0.00040426109730756234
-0.0006512081313690349
-9.330208012135666e-05
-8.973835615166258e-05
0.0004460859069039323
-0.00013012891716699052
0.0009809896970488486
0.001211902894548363
-0.0029277461057361414
0.0007116793477500716
-0.00034420552530497355
-0.0014023884722853728
0.00011238107297645979
-0.001204743333688151
0.001534877198453054
0.0006855129519155462
-0.001193414575049607
0.0004988032014356157
8.70194139226673e-05
-0.000498637354244687
0.0007574047846458739
-9.810193443397773e-05
0.00020150450753830387
0.0001394322198318811
-0.0006442116131589822
-0.0005339611559307299
0.0002429328226836031
0.00040273104014244506
-9.884114878720083e-06
0.0016563518294534592
False
0.997695086728346
0.9425235851745308
0.5749882857994261
0.26165516934145405
0.10589903050546066
0.12081857936572754
0.08192422169057446
0.08332482754190777
0.04154596763679983
0.0574172997382201
0.036632296373655754
0.05355613627325877
0.034651944166835286
0.057276179201084854
0.037943817884509165
0.05120307211359302
0.032757658211438716
0.05320197111728581
0.044735052304072785
0.050104330746392346
0.04710329220210178
0.06801555539107322
0.05651590858685127
0.07164038368233208
0.06843618735337427
0.09557340476009483
0.09302786615090905
0.11215624078809638
0.1189700973463435
0.1561872664098485
0.160032751251361
0.18835296888910819
0.1963537466828047
0.21138578726537294
0.22375508317029347
0.2371618680554693
0.22843764778749562
0.21472425018012373
0.1853953230189629
0.1595227136232669
0.12458436630546245
0.10783612754014305
0.08214921317032815
0.07462008655597636
0.05365103906426484
0.051187271869135936
0.03816902758480587
0.0405363340742058
0.024665833738564222
0.04240892924758101
0.03001085370516885
0.03868538406077305
0.02287174560344725
0.030263308349261123
0.02237108686969733
0.030477814900613024
0.03501922337605919
0.03858837620377732
0.022866888945083104
0.04217673203602838
0.03399459356937822
0.04314890015746184
0.03023699507185473
0.042578340884099355
0.030371351554256402
0.03463541668220809
0.024743958195267247
0.030612752271289612
0.013921960250086282
0.02492832852419237
0.01177077264056693
0.028411176200950888
0.009648259347562374
0.023661820453999134
0.0035619726139939937
0.021699311238072196
0.00806841949351485
0.020739993742394356
0.0007305163569103152
0.014480623379251933
0.015879631396636555
0.02602087298387886
0.009465718281209462
0.010577328302693452
0.0003153660411589445
0.020774706817361176
0.007772315177278013
0.022332816046132638
0.006961938101106828
0.027355359452699207
0.012667233562744807
0.026032055166207043
0.007376942766722213
0.02512330113408751
0.016824818521933935
0.020080147584684068
0.004603765330475771
0.037760204624675185
0.023143191311269188
0.0368405758090061
0.022746707833175336
0.04082444813822213
0.024773046455354483
0.03805997841306094
0.01863036336250149
0.040416440618572254
0.02308488989334522
0.040345152027639886
0.028020775219333455
0.03693379859356807
0.02966440574115788
0.04677125059635385
0.030653735465790508
0.05659521680193218
0.05271719319418912
0.06608442438709496
0.07077405289085678
0.08395192396376654
0.07621204169585627
0.08177203251127343
0.07295690874448008
0.07400037218100433
0.06251285294652155
0.06386722253663094
0.03724156701677346
0.04981605003947963
0.032908378305003615
0.030540746180270965
0.037091747275324945
0.0440166605166871
0.03780122701000418
0.05326050776256792
0.04646188925881169
0.06780654292973455
0.06708941551385653
0.10666640000689487
0.1420305209039453
0.3278001482700227
0.5761257286192547
0.840194252934912
0.940968660585537
0.6827215973729386
0.28192691444827206
0.11830656470833348
0.09806411865394829
0.07875737488085804
0.04053276322812121
0.046347333363040776
0.03138819419687656
0.03661705222282035
0.020752543043341277
0.03442497102350317
0.02352954787401349
0.035397385874418444
0.02244648089745743
0.03475890888457353
0.026803150169365332
0.040953029618959566
0.03950517105481449
0.049796193094850116
0.05425430922331776
0.06920756875550182
0.0717597701688921
0.09729397927444414
0.1004527330045628
0.1269331675504399
-0.0008757616308572588
-0.0012761950845417251
-0.0003800530751315535
-0.0004257850376860232
0.0013618537490397429
0.00016946995712606075
-0.001391822176358872
0.0008902802081565203
-0.0008840820961617218
-0.00031417562443384717
0.0026609254916062112
0.00072102038178437
-0.0010444649093425094
0.0005683186790842676
-0.0014511381364172035
-0.0009783808764147073
-0.0011013315925404697
0.0016174526624790687
0.0002812517328760218
-4.5994471009764334e-05
-0.0002248018978346028
True
1.0005173673646712
0.8242040810018576
0.656230749707876
0.4348906932868344
0.3137461944751787
0.19128395678274826
0.08715113429127637
0.06534241440816833
0.04304150324199131
0.022484849117174088
0.04047488471328396
0.030768833600225278
0.0452545469000928
0.04014958254078795
0.04207686931024808
0.046987627969651724
0.0467539930070878
0.051088527762851034
0.04711809115075176
0.05210549823431584
0.054286031208292895
0.06275956767533514
0.06221709911967651
0.06053302286204796
0.07303790525224632
0.08503266125225532
0.09701429732877283
0.1193203451417142
0.1411498104992649
0.15026582299621277
0.18487465574518833
0.20555391298347944
0.23467500804069627
0.2576989732019424
0.27917756634436797
0.27550608340912314
0.2873133062435676
0.2870707022984329
0.26688025080201727
0.2511688196315807
0.23521802432664568
0.2081799078689541
0.19741948764352318
0.1824307261426124
0.1681758107691057
0.15276258487113467
0.148352959722991
0.1281657232741435
0.1296743464817886
0.11686499994956925
0.10770584517167867
0.10846989126944953
0.1166626330645203
0.10725118740028505
0.1113314512857881
0.10256509862973905
0.11402403325631531
0.1013610551598468
0.11499933121513266
0.1146782250696105
0.12027882323224832
0.11743279204949096
0.11096776919173602
0.11794833131405516
0.12567529394602261
0.11943681094946501
0.13389214163607407
0.14586030198057937
0.16064151008430827
0.16845707770714347
0.18663846446911936
0.18867045884227468
0.22911156131229532
0.24457633525744893
0.24553831039566534
0.24847628053348061
0.2272724409883415
0.192975874762847
0.1258862386687932
0.09182523816438197
0.10023321602732396
0.10705402000537734
0.09577832148171352
0.10342089838858859
0.10743447947241186
0.12333593256968854
0.13349181582661238
0.11864882604032384
0.10212791208356374
0.15483640387176686
0.3954761327721163
0.686411414922554
0.9172508683380448
0.9138390775982543
0.7508257617808854
0.5079686805012532
0.3790237756288267
0.23180271571155767
0.142491447457885
0.0550158575535834
0.021594857083627662
0.011539849336538078
7.251885093742371e-05
0.007544642550624735
0.01638744160328777
0.026082614362382642
0.022075967299099213
0.031197658068389065
0.02804826006190777
0.0213448374507557
-0.00033648899762760815
0.0014672789217080237
-0.001303242610265395
-0.00047221980440066464
-0.00044966112774300895
-0.0004815562805640041
0.0009568270399239613
-0.00020562328791460721
0.0025451701420469946
-0.001093376382199442
-0.000504585905044723
0.00036565178850996006
-0.001136848872199318
-8.525227454682858e-05
0.00036615402534382496
0.0017154545382136461
0.00016229724149524944
-0.002207393406886316
-0.0002526185188098388
0.00015949715762596212
0.0002935609032919146
-0.0013076418779819448
0.0007543951316990917
0.0016354731210294596
0.000737034665409405
0.001914154775802629
0.0021460387372828397
-0.0008938133844671936
0.0031369027470741747
0.0012089956321460172
-0.00045379806482129844
0.0008535378012117383
-0.001791130498744949
0.0005617261211330191
0.00031403596745106126
0.0016995996730276312
0.00013475006909295924
-0.0008020267908003746
-0.0015309457926738837
-0.001011666391680308
-0.000775240061911067
-0.0009666630391645754
2.1627917166151655e-05
-0.0010211140436920767
0.0002012557296182844
0.0010691876250950119
-0.0014239269071597486
-0.0003931286791945885
0.0005538556920988431
0.0015655036018773901
-0.00015901558373140504
0.00036880803507127285
-0.0003368712721148517
-0.00026709207340904726
0.0003955566425617807
0.0003259683497640799
0.0018576835275319606
-0.00027083547239546045
-0.0021339247701480353
-0.0006313984890864423
-0.0011127766066368428
-0.0006132874517837154
0.0006819702560108765
0.00013800506951757067
0.0006513705252389626
0.0010918611976637115
-9.90041609693992e-05
-0.0015282749976082365
-0.0009603227356328504
0.002936360036889992
0.0005470138833070185
0.000724933850193042
0.00024845280373075103
0.00027202743089436206
0.0020231180144844353
-0.0007019296517637901
-0.00031792690525106167
True
0.959946649980644
0.7888133054136012
0.0940277096800739
-0.0006846238783054467
0.12966665818426162
0.21315764670813653
0.2322622987938159
0.25800089045074803
0.2511320245579341
0.23921181819590104
0.2652851333999414
0.28176165988317037
0.2904768215880428
0.2982414115187286
0.29878827996048496
0.32102184157664737
0.3343198296839834
0.36205240004771533
0.3827618755825182
0.423551169448087
0.4315053810461655
0.47291309906866524
0.4733054414877142
0.5039259157312367
0.4806017494106363
0.48743501810363793
0.46332875839955373
0.45151630494307604
0.4007010476538181
0.38326065601481046
0.35030613965673096
0.33047903936222417
0.30789675609837397
0.31230184037834813
0.2887488787786512
0.30121564816847557
0.2814424377190789
0.2853707426863678
0.26879428189263677
0.29010056816133084
0.276298777595914
0.28212555559722596
0.26385984238058846
0.29282098046947447
0.28930927396263456
0.2815125006517281
0.25355067660604097
0.2817338525949778
0.27773727243543855
0.296312442709548
0.29715718716698486
0.3007527533649269
0.3028941812328353
0.3333125157289166
0.31512110231553103
0.34355702191451404
0.3170293205548588
0.3393186797814708
0.32582341408685794
0.32419407937420897
0.3009335810587929
0.3220570499114447
0.3072766514634883
0.2724926793411041
0.2690957496674759
0.271249012119091
0.2298156053602501
0.24190930001355707
0.2529814243203823
0.2715706079856834
0.25065863935475635
0.238204767779141
0.34215372391450144
0.6724269402693915
0.9990286937240775
0.7962278049835647
0.1649463379889421
0.004950699193781869
0.15031002854501072
0.154541370389773
0.17843944282178614
0.20053328429610093
0.2179961339361161
0.21289552942798778
0.23384966379832064
0.2690618611088587
0.25877673823442
0.26403063078039146
0.28509603993098953
0.0015664107074193935
-0.00025040054786979176
-0.00021647800348569845
-0.0016600559087818609
-0.0008920765563193861
-0.0013936822661452352
0.0020253804704954133
0.0008622328538421543
-0.0009666809880753229
-0.0002181450911310185
-0.0006295551150716375
-0.0004882164948681135
-0.0003880881146170203
0.0007932108009698094
-0.001093031123652743
0.0006289257916090996
-0.0006172024272740601
2.5865706942588247e-05
0.001681052086400257
-0.0002969765147226615
0.0010536909016931294
-0.0007556900407279371
0.001557200552904943
0.0016870002956744848
-0.0015496772108753182
0.00016189807271304815
-0.002217346180888747
7.255528972805558e-05
-0.00019910544067383232
-0.0005427230023456171
0.0008079367225985725
0.00026801659256542706
-0.0003924449662229256
-0.0008807105721883996
0.0005603426288370849
-0.0007270120304840741
-0.0011118589820659944
0.0009569462658118971
0.0008438394423759474
-0.0004090490266659149
0.0007432853156606991
0.00024250763520011832
-0.0015010670087800882
-0.0003492847268789806
0.0009444794329907491
0.0006743407862666912
-0.0007331613065040476
-0.00039760685761847466
0.001707185712360866
-0.000226914129587063
-0.0014250519478142497
6.655598618740881e-05
-0.0004514231791012712
-0.0006657077407913314
0.0032479990764238366
-0.001873491968165635
-0.0014038680461470243
-0.0006577507398697905
0.0004740752048162823
-0.0005203581017736355
-0.002642549195607206
0.0003847686570129946
0.003035392246155488
0.0006279531231336048
-0.0008313900423079668
-0.0006417428600370326
0.0013802352935828332
0.0002131924211196296
-0.0017575945817386257
-0.0009525197676623054
-0.001298195041848405
0.0024846332273492193
0.00010665600946445011
-0.0005141166972233914
-0.0008301123012514585
0.0004941203928136427
0.00019945022918433885
-0.0004321288995358773
0.0006716490593740506
-0.00038526352062076894
0.00013007288263969181
0.0003707945911701117
0.0002533360062290224
0.0017986107639139273
3.091211869987752e-05
-0.0023524396771472155
0.0015665049329539446
-0.00012279085760581726
0.00014368166982891954
-0.0009061641488182436
-0.00029771462451682907
-0.0015709306545241151
-0.0023976032761520937
-0.00038099209935372715
0.0002874932110326015
-0.0012173117672828863
0.0011221701573893388
-0.00027689159793571703
True
1.0017628624471921
0.8838031232376286
0.6473193126165988
0.42041031726290085
0.17927606935487622
0.032432956859882865
-0.0004989515469893622
0.009742498408272786
0.04057447009839636
0.08751484172304141
0.11298085520711647
0.13924694292166737
0.15663663787551058
0.15401400650218344
0.1590633142099081
0.14681578005791873
0.14856112287915424
0.13794716860547976
0.14123075960708176
0.1270520754047486
0.12977530662538975
0.12068239830834888
0.1307555073459517
0.1315200304063317
0.13794283973235016
0.14225427258304352
0.15902220763250827
0.16906260967148395
0.1927418157849182
0.19697053875580375
0.21867359472023756
0.2324618999914777
0.2548985094386633
0.27160632834928744
0.28898190534580126
0.3020091953363458
0.3223905705268938
0.33070882215136194
0.3418315209052815
0.33972661535946613
0.3496889922312171
0.3367815642242017
0.33607252986236136
0.3291140792737707
0.3329616642636581
0.3133282345842525
0.3143696790211836
0.3033427493031102
0.30577635467126807
0.3018854442311637
0.3154585620946015
0.31205905794741384
0.3176095523927337
0.30885051523046564
0.31840204825841456
0.3299607177301058
0.3377838593098488
0.3361125609881602
0.335376013461162
0.3351926387342305
0.34570552541139116
0.3312292308554883
0.3111117080983072
0.28530962170594515
0.26836524936476935
0.25655248569897326
0.26430406328935035
0.25641805105497245
0.26404173631920946
0.25689970049212574
0.25816815081156386
0.25777900564562856
0.2639841940429527
0.2602998649194776
0.27271516024354653
0.2696100740206935
0.269753768178515
0.2714813499413385
0.2800209782366871
0.27202413360211736
0.27407236998716794
0.24722786977459243
0.30875492994454035
0.4796068445318962
0.597085717445567
0.7588574414592189
0.9328338299684757
0.9662260761828477
0.882625092051121
0.657979834081238
0.4710860310618774
0.2233031394365534
0.0756498104153345
0.015288885369741339
0.031127834279311775
0.037146191531703024
0.08614119002508053
0.11213946776389747
0.14204949154134447
0.1594136828655541
0.1745514643062713
0.17193985671329826
0.1673919265318021
0.1588128435299142
0.16340219469513
-0.001906224745740787
0.000225309701339365
-0.0014529317395441071
0.0007744174903451318
-0.0016717411759565066
-0.0001962144532724455
0.0004325309162714916
-0.00032245804492437143
-0.00011090837279233246
-0.00198681022365585
-0.00011224347278909858
0.0001339283225096994
-0.000271425854928611
-0.0021680347543919227
-0.0002751438557989108
0.0010935086069958355
-0.0009244309861075629
-0.0003552082512609446
-0.0004064923336229816
0.0011682808365438306
0.0008265979119990833
0.0005503290488075613
-0.0017668561904705994
-0.001708090843211022
-0.0007241740342008665
-0.00043901078267118544
-1.65262620341478e-05
-0.0004875109071303201
-0.0015555133768822495
-0.00021155884094468358
-0.0006794292161380122
0.0014841786271047358
2.229699249323873e-05
-0.0011253169201587722
-0.0005109603732274862
-0.0009600815502961739
-0.0006330196378192801
-0.0011615443700153055
0.00048807665408940796
5.745605329091424e-05
-0.0005883659784436275
0.0007714496726457968
-0.0009234434730169932
-0.0010311967084799946
-0.000755887208939707
0.0006603869774113359
-0.00036199585687034756
0.0007918844102830795
-0.0010977830182717734
0.00037502315290600425
0.0004781226152024182
0.0004625156966047585
-0.0013361341516110172
0.0009564744629506362
-0.0007334855953928725
-0.0005928905488934653
-0.001658364304358889
-0.00036008592279024597
0.0007852144579645494
0.0007282674200903197
0.0005677473993428933
0.0009280109263528154
-2.625359754793828e-05
-0.0003981946878012862
0.00020433096000560313
0.001703265481463904
0.0002284035986978523
0.0030576257560167327
-0.00138158540809174
-9.316345875308568e-05
-0.0005956022871892189
-0.00045557212779073964
-0.0020699353289637583
0.0003910161847099401
3.462526048836092e-05
0.0009620785572004944
0.0003365046430890086
0.0014424731906417124
0.00146546727048635
4.93396579072519e-05
0.0017572672614055394
-0.00042768049197763083
True
0.24533583504714346
0.2535764607902643
0.39259928974499086
0.5098368195239595
0.5860098544463165
0.6398118161312188
0.739546807286356
0.8000670375363844
0.7665252506041396
0.7914112236934358
0.8163699866745864
0.8085537416466799
0.7833063713279196
0.802738552332348
0.8527958170170581
0.8456930336435765
0.8201989224270054
0.8127291239866651
0.8657457335385823
0.8479438731179914
0.8683328430046894
0.8918568750032962
0.8981069626755673
0.8954328852731998
0.9105457376440488
0.9172471588764765
0.9428474813819756
0.942247219305075
0.9605711575621302
0.9658306680816539
0.9731707528192051
0.9696824505836178
1.0009041806931334
0.9779797684306908
0.9856308506980855
0.9940600686410901
0.9860997657970018
0.9681045633730954
0.9759598305854899
0.9586481711672604
0.9664957165713537
0.9402573770839107
0.9515548813198463
0.9271685222218262
0.9162991974488162
0.8931880589263685
0.9045145135837579
0.8774413718438467
0.8821424462226163
0.8701857187070317
0.8664124424387087
0.8571861715359163
0.8481217045993397
0.8352028803830432
0.8329317267427832
0.8234130282018404
0.8335744318735003
0.8127327546084676
0.7966008518588604
0.783951792163211
0.7944600337710181
0.774938663714208
0.7635465092875592
0.7607970640424031
0.7593825532764589
0.7375471970979323
0.7469566432536532
0.7348622954653807
0.7408863280315231
0.7250499996685771
0.7409679332699176
0.7243436310546436
0.7187615588223232
0.6902758983913903
0.7028072650813971
0.6868819173723462
0.6916559603724379
0.6757206080996827
0.6770266822099312
0.6549374406374836
0.6690288488268114
0.6547905659053597
0.6592041269716531
0.6385052758958739
0.6510546908534045
0.6476902486496579
0.6407950773182475
0.6211875218723206
0.6301490924772587
0.6136558449770502
0.6224255821447724
0.6164055367881033
0.6215466819559892
0.6133288823440021
0.6069747783154594
0.6006018337287208
0.6098804314796298
0.5991312648227212
0.6048635335254042
0.5755944840277173
0.5529086325449252
0.49940809309358775
0.39701596520531557
0.3316027295064287
0.14400212410392996
0.0003804614211006295
0.06832514322683308
0.1466095872653706
0.2699644105887429
0.3504627445795583
0.4112870693625159
0.48479534031429894
0.5682695677483491
0.5807815008111462
0.591105243403095
0.5849456842473142
0.5914332846019706
0.5897647113400025
0.5975096607617848
0.5877302709022462
0.6019668345520427
0.592807680359794
0.6068705895983646
0.6029016175704754
0.6117895797460997
0.6014776950218339
-0.0002706902818118551
0.00042080627261421427
-0.0006457082535701965
0.0011619743490781334
0.0011866742399471162
-0.0008061869956711859
-0.0011076535227697445
-0.00013852188746170315
-0.0011959236211690873
0.0009218885362240076
0.000447023098741937
7.951260173783787e-05
0.0011282679354283015
0.001471643799725218
0.0012736045721008862
0.0010885099126206786
-0.00013479514931358155
-0.00046481853146038057
-0.001149999381607571
0.0016367150241713962
0.0009533551962671795
-0.00023188713438544143
-0.00035326360521887906
0.0004401707179690345
0.0010372167062723636
0.0004939672477939201
0.002720234461483349
0.00035588217940392023
-0.0023167982954842735
1.2324020847359345e-05
0.0015489091612237718
0.0002814212639387503
0.00018488348359440557
0.001120852843309051
0.001362503348078295
-0.00041225119339548884
-0.0004820568327100033
-0.0008037636852498925
-0.0010029137522185787
0.0008999391607810292
-5.942166104272422e-05
-3.7238662465282844e-05
0.00014126757299572613
-0.0005970744085819352
0.0023231101092497566
0.00042445732091750046
-1.7899541673435902e-05
-0.0004772582240987233
0.0015860929150762434
0.00015546558958432088
0.0006896827993109821
-0.0013549964220280339
-0.0002310484515037064
-0.0005395313431531538
-0.0005855695657817451
5.8415988749111105e-05
-0.0018535880288769865
-0.0007519681466783604
0.0006740323149940536
-0.0016115986588694374
0.0020312278443121133
True
0.9987607505463258
0.8063838224264166
0.08358860281392043
0.022532231761274238
0.15392982864553048
0.23672234782575913
0.24601557463688134
0.2504899978836352
0.24492362369118664
0.24910627602451818
0.24724325814753
0.26529485359722615
0.26945622764803356
0.28627022433719757
0.2815361238626717
0.2876152029323548
0.293416995550708
0.3095745681918793
0.3215064876567384
0.34890832775965824
0.36073433197988153
0.38277802039614395
0.39601329116691325
0.4134785445014634
0.4305477337154878
0.45686733981171895
0.46779174116375083
0.4777430625388666
0.4757964420286723
0.49171488481737624
0.4782356810002593
0.4693207859873159
0.4407022625754206
0.4275367307250137
0.3853196396614713
0.37593601310008085
0.3411331979445353
0.3247227238369773
0.3152917298416077
0.3260577289330507
0.3170368115232021
0.3204486687226319
0.3060910592501294
0.3238813724175486
0.31693910159111144
0.3169813577877286
0.3253576331411685
0.3268266222480557
0.3114729471568162
0.3301128636790734
0.32622031549513936
0.32990237363660413
0.3307523748253445
0.3298307147899021
0.31557858676314154
0.3210697571258211
0.3335178740742757
0.35234454946001964
0.34380270889887027
0.35240576068543605
0.3369407167805762
0.34632700574727043
0.3382376031895517
0.340510624255896
0.32282500969890365
0.33906636708355514
0.3235047867065444
0.33604450435297617
0.3217903519725437
0.30386106651722544
0.2784532440404842
0.2858842376895213
0.2724230015190443
0.2708781536821106
0.2639319437750022
0.2711050507592686
0.27178494544943976
0.26787207715342026
0.31351634708603543
0.5324125605477744
0.9198173550102784
0.9059608697095218
0.3206067336712455
-0.0023829196758527473
0.12100096260862878
0.2420596059097783
0.2536602942414641
0.28464059943160613
0.2831951199484508
0.2934203051616451
0.2971723213318299
0.30378841329020917
0.30434003982521063
0.32355606144658644
0.31621854331626065
0.3383410539402948
-0.0008858153708163993
0.0010564420012116927
0.0005958442908696043
0.00018137646357713216
-0.00040882989498785334
-0.000428318737143278
-0.001367587005703702
0.0017721055848294233
0.0007411510404643634
0.00016661666274142586
7.948110379271434e-05
0.0005107084571492779
-0.00045909616769220705
-0.0010904733523261925
0.0003089179685720965
-0.0018714286248213733
0.0013255377804752804
0.001230828168849038
-2.217233354230251e-05
0.0018774773787191253
4.768925993040528e-05
-0.00011516248303288766
0.0011909862488834082
-0.0004947186743240441
3.883506859468053e-05
-0.0012746859122090837
0.0023440000385308913
0.0006047859366081281
0.0002766899282447566
0.0005400114245574792
-0.0008506437859121831
-0.0004887058453536496
0.001482309551848187
-0.0008554416747830574
-0.0015983047357801298
0.000999533037203344
0.0005422436315450311
-0.0008386432447020264
-0.0011945821181175691
0.001109146937500309
-0.001105593168510184
0.0005556066955717732
-0.0009171901339897098
-0.001541415506281075
-0.0017047103720599613
-0.0022102932567863807
0.0004633870631720643
0.0006357520545175559
0.0004953877201679169
-0.0007116044244723061
-0.0005892621084177549
0.0012894749529145193
-0.0004997529404904179
0.00047472233772709234
0.0015980886217544696
-0.0006926579213639292
-0.0005316827873131313
-3.314490183085797e-05
-0.0012536610628845432
0.0007562695708164568
0.0012250258207014155
-0.0006378061573014403
0.00102351981948
0.0009955038573939408
0.001437360571185369
0.0004895043817161988
-0.0011986951605419834
0.0006049939082301784
0.0015783425912468932
0.0015959830140937189
0.0019304757033771392
-0.000175499695662414
-0.0007544969185550202
0.00011127880336275344
0.00014364506064447357
0.00025662540304366595
0.00010803830473425825
-0.0018609289612975801
0.0005544644713186653
0.0011305128400932193
-8.948549002522565e-05
0.0005503980258109375
-0.00020720479120681727
-0.0012609935578836969
-0.0016489132518843442
0.0018692269387068402
0.0004659234005378618
-0.0017320151816843418
8.862767481265614e-07
0.00048453134599809976
0.000692271126415237
True
0.9162275751013486
0.8732096002446719
0.2046298559210726
0.0003242575838733312
0.08298455722458788
0.09871644242817543
0.032215834832278835
0.1323014935651003
0.16098326030079924
0.09874218216239244
0.15493964366598414
0.2702166191077681
0.3263657907719411
0.32987146170391035
0.371074306147829
0.32558910909213457
0.32559342516962325
0.33484590264214215
0.3424917421996394
0.34879956395577294
0.3266135000480034
0.36327257729479606
0.36390125315935934
0.3752921658170773
0.3470856775604179
0.3503376004209705
0.385977574515436
0.4192487727749814
0.4313852858966946
0.4428220315522837
0.4976827632629809
0.5255338036361158
0.5221890778251548
0.5366443952580258
0.6030685981632403
0.5801553517938216
0.568606639948431
0.5744765119217421
0.5857368254125995
0.590221622440539
0.5488098311976607
0.5369299721331535
0.5350232774018048
0.5128030931959802
0.46939690585853266
0.46525371040181973
0.4581449303618116
0.42424711057413156
0.390776645923836
0.35321420135914383
0.3921838645105168
0.41445566688660573
0.4522441806458876
0.4311817064210407
0.4579546621633938
0.5181293175776
0.46883871672497485
0.42176420901496686
0.47031286236515196
0.43604341670195074
0.4034190248321745
0.43601756531314845
0.4459792703102136
0.43724626954734935
0.40907818837909365
0.4262070031513159
0.43602240763716715
0.4297384922758786
0.4094970079538848
0.4201933674211254
0.44724143098267033
0.42035085009042267
0.406912089276673
0.39758052647889786
0.3534004265616655
0.36454522678298223
0.39402853484239003
0.40892984590489234
0.40889465022986987
0.4379704634372666
0.5192281988623499
0.8007800208729354
1.0005149420336594
0.44193597122445755
0.005803711292057472
0.11071679699449566
0.17570343006844721
0.11235486690589909
0.0665590449694077
0.19276263017754608
0.21496430886493842
0.1550785623181915
0.18803414710390673
0.26558442968598217
0.3533551973999155
0.3588050987959585
0.36926593615057623
0.3649513035048371
0.3866562731544117
8.99184393209354e-05
-0.0025436611020504462
-0.0002095980531264491
0.0016946730548140024
-0.0005928683102044123
0.00024533448026145885
0.001560480665173546
0.0019058450442617457
0.0020575173240648106
0.0009375833887605554
-0.0011415781943958272
-0.0013880265096337793
0.0005740721040648134
0.002318825986301154
0.00104203683633961
0.00028125106339088813
0.001890541807801844
-0.0013040222031355353
-0.000299648023251383
0.00027231679245950816
0.0006726244755424923
0.0005886004131891103
-0.0013520424160025578
-0.00015834579790534109
-0.00014539679467829957
-0.0004431975515181023
-6.389402059431814e-05
0.0002614177471157638
0.0008905874924994176
-0.0006539817864337167
-0.0006736611381404299
-0.0011321107520133706
-7.312632190543748e-05
0.0009715534206611708
0.0022175391551164368
0.0027532939925155164
-0.0002797598574922979
-0.0008648135055370725
-0.0015573925077887094
-0.0005328439822105803
-0.00012447630528318344
-0.0005256901907929937
0.0006827159138406291
-0.0008005999999299236
-0.0012105349634870138
-0.0005472959403406034
0.000886033896822484
-0.00046415270396665045
0.00011423175555623005
0.0019859249451386124
-0.0005238072478512142
-0.0001343088430843858
0.00022232476941551246
-0.0009318232584677443
0.00031939736154455793
-0.00048177300776273166
0.0006834433599873216
0.000957414030252265
0.0008692892339992461
0.0015936238801469997
0.00020536561248419742
-0.0025194277873443155
0.0012054204393909245
0.001724895792105807
0.001186267793372549
0.00097547540204736
-0.0013447286823839273
0.0006524936633878163
0.001906858394360321
0.001163450674508465
0.0007401874535010606
-0.0001250902075345833
-0.002044990660946335
-0.0021731405556437433
0.00026476137353646274
-0.00020205188032516573
0.0008012367166188212
-0.00044704727162071366
0.002570257769699451
-0.00047076426597257364
-0.0008537370932555153
-0.0008953624425602749
-0.002161643683906228
0.0010687002636158474
0.0005383328113121391
0.0008163334293329887
0.0012737480630341507
-0.00042800717939940164
True
0.8746191451186655
0.4628462667941093
0.4679276703139342
0.4696276417475339
0.46198401385666
0.44657210734125236
0.43403558827040617
0.38916965440249385
0.26125748828365464
0.15627138424088433
-0.000879261597899504
0.057160027605891554
0.10338822068097556
0.11005215797357047
0.1100031586370215
0.18470820293997134
0.15697390243091675
0.1359826328777094
0.12439349112866743
0.15637953099645308
0.14157502026346827
0.16526474561217566
0.14081477136119103
0.16468105179668133
0.1502459674712375
0.15645481655329796
0.14609308318182995
0.15036457317518145
0.14280951968472608
0.1497474445696663
0.13856794916288617
0.15537057285964997
0.1546224087188684
0.18297939799023372
0.17992988870104373
0.19825528138553758
0.210591337856906
0.2322146728924797
0.24240767554395276
0.2693102010948662
0.2746852727297362
0.3003334784592307
0.28663972421634937
0.303722822367472
0.31104219557179197
0.31283071354393066
0.2881697566796576
0.30104787407776773
0.2761256388595075
0.2640902614544126
0.26284210996071405
0.26018648144962003
0.22754081882070812
0.23422221413314245
0.21602105667328092
0.22396791466136684
0.2157927304412763
0.22175078814798213
0.2023146476699669
0.20918053590693345
0.2023999528837265
0.21089067241588474
0.19245288710767922
0.20669294516679707
0.19587715451093116
0.20637580767552144
0.18054533417148727
0.19244211303294106
0.18504088664279417
0.1759629126877574
0.157903614542867
0.18114302482913527
0.1704257791567699
0.18247491270927504
0.17007211871428105
0.17380860287289426
0.16030465781264158
0.1740745067424299
0.1594424920674551
0.17592298175656643
0.15648968144745545
0.16864165829198996
0.18258470509657226
0.17010959174657342
0.15445696126237515
0.17011538458070605
0.17493818178135423
0.2018810163171954
0.1749482357581783
0.18437687164267133
0.18490381220194002
0.19754134191975065
0.17800141466017164
0.1880636407417306
0.1988340784032913
0.20941994844938427
0.18798574996841008
0.19075140703381152
0.1990553924252267
0.24135879631977045
0.2550348569223833
0.372696948357784
0.9997174688265279
0.6290620749181948
0.5267456234578803
0.5158150787392964
0.5163699492213112
0.5281823778981897
0.5197222716915163
0.5272540463901441
0.46595497762193605
0.365946290857437
0.19426377999882824
0.0497834773581345
0.07787161354369981
0.10931347370351696
0.08172090593877596
0.12484327496949799
0.17385130708345845
0.17505875353090766
0.16487135773103845
0.16304940616587976
0.17442878014088548
0.001689515692985751
0.000500619552654795
-0.00019079562618887132
-0.00014596711058242694
-0.0016075910681478086
0.0011643651995710282
-0.0002611840874578539
0.0020689328154459433
0.0014567652846351666
-0.00023974275583602247
0.0006479449523880517
0.000677069374067492
0.0011139020618810475
-0.0007383435612061765
0.0018931273013248935
0.0014949673807079168
0.001079656815152962
0.0005426458329340995
-1.1777738407484132e-05
-0.001346404812850732
0.001894974068238262
-0.0002548862545973982
-5.1655797055317336e-05
0.002918417596594661
-0.0008300449139861646
0.0008670506573237302
-0.0001070523920493844
0.00025891515526501067
0.0004088506312159695
-0.0013244555706362422
7.17518725467359e-05
0.00011221694515876622
0.0015128690188130666
-0.002156261505872287
-0.0010911406767245863
2.8714510023719072e-05
0.0008766781380623765
-0.0004672332769083323
-0.002105635233791707
0.0017371528217501207
5.556041925823542e-05
-0.0013253762548432726
-0.0014275071931472063
0.0015584757558483192
-0.0010464319705390402
-0.0007991889714054392
-0.0002464695745178034
0.0005175384916245941
0.004035472672338346
-0.0003822069447604376
0.0003357745251884523
-0.00010614086378668328
6.921637680057072e-05
-0.0014167979484420521
-7.557430699853848e-05
0.0010724864409633497
-0.0010361240459583988
-0.0016214097844150033
-0.001078902245477152
0.0012001428990931992
0.0009104630015389402
-3.922715492290983e-05
0.000519208100535293
0.0004769607617098511
False
0.8727593964078215
0.9480654551516213
1.0020304335203256
0.9851191217303309
0.6049064709737594
0.31396473648438045
0.1800999621879644
0.13969787281195997
0.10268331792994173
0.09415822114024938
0.075227873855429
0.0782164655133905
0.06213606771021722
0.0706633697538049
0.052946968739550744
0.053639892809976934
0.02990630325344022
0.02795637603606805
0.017788360310281227
0.023154132860162917
0.004683735827873032
0.009987543347271772
0.001775300842650713
0.019979356598785972
0.029174457316194388
0.053580396140472906
0.06729144397707751
0.09452309770899936
0.12346339377440388
0.16860038140845832
0.18631443934521597
0.20633708585787155
0.1935731230344856
0.21111417373524424
0.20205516991832587
0.20243101611359907
0.19120005602635926
0.1901537467488756
0.19131311322769684
0.2091862245031456
0.20210940084256404
0.2126139623743245
0.19070330655217582
0.20809949553313475
0.1923950054216833
0.20975196288032855
0.19987857907254764
0.223314943845521
0.23639296309190988
0.29912264806112976
0.3729944001754867
0.4657656067692497
0.5577840491741057
0.6658824523363939
0.740007780716639
0.8265303673316352
0.8289431553262585
0.7784253023731234
0.7209590585422219
0.7005915102523992
0.7024353031239704
0.7187861205280298
0.5933301208916972
0.3556807607064596
0.1735494174515028
0.13549986188843813
0.09758292582454596
0.08223448595868572
0.05242202141684984
0.052604614848301284
0.04016312688777433
0.043229821727195174
0.017816080212977935
0.020062023659416093
-0.0008443920051828873
-0.0009608371326774501
-0.0012764884374716072
0.0016308531051841362
-0.0005983385711888973
0.0005190142337393118
-0.002168667623927117
-0.0006382145855115159
0.00017345966602211424
0.00014097216746552862
0.0006587564899407644
0.0012860446298581711
0.0012888347805474932
0.00011506912557665727
0.00034384229742275566
0.0014106742548917284
0.001251597569287563
-0.00269817925925443
-0.0006350314248689418
0.0006524284507958674
0.00022197692941041826
0.0005942336835956724
0.0016604976637098626
0.0007105524229947529
-0.00038315639977718537
-0.0005980616567816523
0.0001420049641124039
0.002584844318170977
-0.00019931607996509284
-0.0015497604952053484
-0.002119952482682963
-0.00043047213642014205
0.001997206107670478
-0.002250710675035187
0.0014859228969217597
-0.0010743153671334575
-0.00025372019405099015
-0.0012641593181204908
0.0006204085487251344
-0.0010922761346271893
-0.0012843816228577279
0.0006609791085078494
0.0010635475940750396
6.375719628891208e-06
-0.0008192713203907251
-0.0005009058682501678
-0.0020341433651510452
-0.00016821477533558921
0.0006461143780858794
-0.002823696158824897
-0.0009285361749327355
-0.0005113945212266403
0.001396732860428953
0.0013406879658797734
0.0007562598064147973
0.0009302994231030493
-0.00010739478656401736
0.00039415932191675437
-0.002349810605211817
1.6653440747619108e-05
-0.00019469435707766852
-0.00014952762796357377
-0.000759871428889192
-0.0014729096811936233
-0.0005511644868588781
0.0007793285435229335
0.0009905207982528405
-0.0007902243345326572
0.0001275466965381451
-0.00045816354131094234
0.0007785359120585646
0.00017485415938387137
-0.0008833220066538381
0.0010990079629947427
-0.0009071035735380903
-0.001028331683994921
-0.00161681495788027
0.0010506616904698712
-0.00047252778075359154
0.0011229388632332785
0.0009256410917512248
0.0012936047334148441
0.0013136049827713837
-0.0006195709209289507
1.0749730267312082e-05
-0.0008700200187498504
0.00020510113250542852
-0.0021167011427624966
-0.0012937790453890134
0.001614396761131083
-0.0004692545854458259
0.0016710690674115003
7.41489555072763e-05
0.00023704108222059306
0.0023463733845944254
-0.00016863228622552545
-0.001384991734519064
-0.0012898232349085508
-0.00030701577505977146
-0.0006242356882597928
-0.00015879344347095617
0.0003323697889162176
0.0015180488417775484
-0.0003472091364033516
0.0025233746198523887
0.00042697482302253987
-0.0030809633268523893
0.00013180736473414334
-0.001477493452246687
-0.0010137751182669767
-0.0004456449177982006
-0.0012442267791244956
0.00018462726531003529
False
0.9998605891692491
0.888629769626463
0.5925804862388548
0.40237818979224027
0.3382075800981472
0.3292051846140911
0.32022612592578026
0.3106245450103187
0.30673350625074935
0.29489749463002113
0.28353625053304893
0.27167406769288494
0.2699186658993774
0.28510597268116716
0.28286319571561086
0.27619655902760926
0.2910308057958631
0.298003848097082
0.30118247213408317
0.30105100603083795
0.3080518254041411
0.30705414302614525
0.29309681467086324
0.29756459285120385
0.31141527237067823
0.328236564938425
0.33456136976353335
0.34614441883615504
0.36291381474072604
0.366524545303113
0.3723637884213271
0.3831207359424662
0.37815325285420903
0.4043947870336781
0.46841083257496274
0.2799557256779027
0.03517372185965868
0.02407674864571198
0.01427879551554793
-0.0025416429276374675
0.040861118004265964
0.15000950180586126
0.16978468321115162
0.21977658862875968
0.2938267642103027
0.34261805036361437
0.3718842524764792
0.39743834940094713
0.4103143044873547
0.41626065103443866
0.42472931854129703
0.4472578138386475
0.4555321022684181
0.47299449651949477
0.47476569091695675
0.49287105940912024
-0.0014640185492157999
0.0005869662385740048
0.0007589712735283259
-0.00016102414981961614
-0.0002784226793277859
-0.00045162327407547364
0.0013265699392987667
-0.0007192390420026571
-0.0005503092300437408
-0.000896416325359656
-0.0012481150083627952
-0.0013713883495388593
0.0010573686668786182
0.002015304393315998
-0.0006401608279281137
-0.0007633599837896324
-0.0013351960287590718
0.002096664359584992
0.0001839318962979457
-0.0015247249713212215
-0.0013641465651119062
0.0005219439858921568
0.00024066090335033983
-0.0005869341678488595
0.0017611742412705612
-0.0010373980328217444
-0.0001736428158798037
0.0004542292884670767
0.001021803584285587
-0.0008811620063207938
-0.0005960582855074087
-0.00042043297880011446
0.00013500248125423032
-0.0001815363456300774
-0.0003472143786915185
0.0004058864203558711
-0.0008158239066282207
-0.0006984748860828288
-0.000242538668978728
-6.39340594471693e-05
-0.0002487822721585368
0.0003138623425509049
-5.504343074784783e-05
-0.0011919810773291725
-0.0003393626950198982
0.0012613572890249783
0.0011117827454518998
5.0477738949904025e-05
0.0004049317283746369
0.0010660127849517003
-0.0007425508892797702
-0.0007346308116684302
0.0005426749415207815
0.0007043084342222255
0.0007147827764410017
-7.732431144740817e-05
7.2905550314231e-05
-0.0004767245274789221
-0.00026112156002159757
-0.0008594747557279415
0.00021473732498880055
0.0017911722301624615
-0.0017327491366538276
0.0010455249555460084
0.0014968010967960899
-0.0009705798851376185
0.0026029916565980904
0.0001368455980383231
0.0008522213671394065
0.0012237273949943822
-0.00011206645891769915
-0.0011001609675000631
0.0011868889522295113
0.0006385213249893207
0.001096175289109281
-0.00047692394884182816
-0.0008146991634572378
1.649967284341696e-06
-0.0007373099635409226
-0.0010745328073728782
-0.0008049355862036959
-0.0004301361747718741
-2.310953494849289e-05
-0.0012088607192213816
-0.0006582074679607544
-0.0019747222964917573
-0.0008808953325296375
0.002449071049591656
-0.00036052117021354653
-0.0006692867210874812
-9.341435696299184e-07
0.0010033826086619504
-0.0009482527654151813
0.0011102407243299072
0.0010053959951040684
0.00023149973192590763
0.0012251212336049063
-8.075756908250098e-05
0.00020818957037507392
-0.0011135562983457838
-0.00015480554547682597
0.00045887376194545307
-0.0007340915848125043
-0.0007341815809675381
0.0018687888507378356
-0.0022273927025127033
0.0008343211233034943
0.00041816051503965713
-0.0007938406513488742
-0.002849866069590279
-0.0017068422275149425
0.0005720602772756745
0.0009840239120534314
-0.0010629546407066788
-0.0006690080281171076
5.8270842706587274e-05
-0.0022667385115224866
3.663096249564216e-05
0.0002768955208714078
0.00027390637481408795
-0.0010913700846440708
-0.00028160896273790137
-0.0004913054060122117
0.0014567638957992328
0.0015779364487044723
-0.00210174531947991
-0.00044024080574091756
-0.0001312204491401779
0.0005114333673627077
0.00016622349530437738
0.0007014396484183853
True
0.9896558673078616
0.8429165117630423
0.37955069269248387
0.0026667494431018655
0.1601798132510366
0.14932280625369018
0.10103086936481538
0.10116193236052952
0.10121610059165753
0.10240763006997373
0.1092938899294115
0.1135267864001212
0.11186762548540383
0.11377250061520733
0.1252201649477715
0.1279188880059804
0.13082004588236204
0.13261787183665247
0.1533002645968648
0.15911701260061878
0.15945591013719765
0.17738402912654685
0.20091310781536584
0.21789206193256702
0.23863810726100387
0.2552136102202052
0.27736534539562707
0.2846231054632525
0.2796473528116719
0.27820299490411615
0.2794298083449375
0.25422636166132406
0.2163261042822956
0.18760727865777613
0.17072892850350607
0.15154462885448713
0.12707849256084452
0.11388038261225979
0.11116111913666685
0.10673550645122645
0.1009886553034496
0.10989048104491136
0.10798496110023026
0.10816845825749943
0.10937815826742577
0.1117578910739495
0.12135457875107701
0.12261201286654977
0.10940382091340985
0.11350715979066332
0.11978187747873469
0.12053655109587753
0.11599632011336072
0.11238117188546616
0.11742567607505822
0.11539871753761488
0.10878341184924968
0.10533741899767088
0.10967000900059694
0.11077902015920217
0.1012156768868373
0.10418501999416019
0.11266286894409212
0.11263873904728583
0.1096059315745187
0.10450003498208904
0.10867155740573582
0.1100868575142002
0.10950365000882595
0.1064735730729137
0.1120440858992631
0.10903777116819965
0.10988135499694447
0.1123510663538402
0.13130494591328318
0.13764981298593706
0.13788179863641223
0.13761601493953055
0.1517367352634143
0.16403763051439063
0.16220293248616663
0.16036098518110073
0.16197795398850567
0.15608797732558766
0.143436646055971
0.12653520361921536
0.11716890683203803
0.11542162506128144
0.11648595229980124
0.11594987192681933
0.12444323721751462
0.12683207707955477
0.12682651567518097
0.1738388626050713
0.3802679068576434
0.6696589010568225
0.9290306214317425
0.9989053747520008
0.7361141868612535
0.2708128616371497
0.05327567053441737
0.20073757214029667
0.1736323624893689
0.1295030649144128
0.12879475728991868
0.13208551038684307
0.1337053054920167
0.1422883248995476
0.14002670169214848
0.13762806837353547
0.14935598494276928
0.15033396674776928
0.15090936133516467
0.15824524798536974
0.1689387615159259
0.1776767117252546
-0.000928673146076093
0.0006074658599027322
-0.00010100744617281704
-0.0011327009877126859
-0.000787213521961301
-0.00025049730232328205
-0.0016193653682897273
0.00098037172687214
0.00030730799123897154
-0.0002467317010120335
0.0003451388128446208
0.00037540310563788197
-0.0007488898188575458
6.656178042926345e-05
-0.0009367011810592172
-0.00047272764821069377
-0.0013495228569388056
0.0012603373207344382
-0.0008632318832279816
-0.00030617184374797117
5.20321822855577e-05
-0.0002685689169947484
0.00016499906652767775
-0.0019439769451908364
-0.00013682226190200042
0.0005766569863902446
-0.0009419872606672437
0.0003478224578694614
-0.0002037047880879946
0.0007043329533327536
0.001094250985973935
-3.865581381491283e-05
0.0005235464860259094
-0.002053964919558203
0.0003868129969553394
-0.001521736719145925
-0.00013631799116037697
-0.0004766603825444815
1.1065648319721293e-05
0.001960927711729137
-0.0008846327783368845
-0.0009899897415374822
0.00016961280021070637
-0.0016420703981966645
0.0008540563814662609
-0.0001387584276978661
-0.0006925491735428343
-0.0007146320420208323
0.0010063638750085748
-0.001225515041413741
0.0002400552570959435
0.0006976916917602253
-0.0003219874001222672
0.0010892947699992542
0.0004720189731081467
0.001372496642371797
-0.0003493931413583123
-0.00026349270433830425
0.0022158886359074617
0.0008576173868216093
-0.00047101936871104015
0.0006095407936160696
0.0005267374896653847
0.0009149833984120252
0.0012508218431313645
-0.0006763536377756798
-0.00015651080220670021
3.811245706822203e-05
7.957588872484426e-05
0.0014810383381263469
2.7754840111970586e-05
True
0.9854870611451838
0.8375275210217691
0.5057407707481745
0.09660487392100671
0.054259905038590996
0.09027932283657167
0.15345506564587452
0.1899633463438449
0.14935821507725602
0.17229214975630125
0.1857761350119659
0.16210173906807487
0.16081233556995675
0.17589011529881768
0.17142751263673384
0.15833034743078495
0.14731330096181
0.15572744823687837
0.1581379198215994
0.13641545935072213
0.12190085394588658
0.1352562938854749
0.1254375481488345
0.11167123904401655
0.09601583232678124
0.09953853322419971
0.11307070673968046
0.1010341242401125
0.0945891298103612
0.11534799322964545
0.1316583792182728
0.14306093794639727
0.16208125255644362
0.21564432326252939
0.2622243505842803
0.29377447437162274
0.3127259524834536
0.384851014904549
0.4199498536459524
0.41040359717809
0.4112909526731987
0.3986536842179452
0.4046802209875691
0.3794809489503617
0.3440971536954188
0.3554025076031121
0.35849107947470504
0.348757488899246
0.33320024465948367
0.33199686976160636
0.34444091180338066
0.32660148751892965
0.31632376419235153
0.3090679229109668
0.3329328828220295
0.31101078234672175
0.3071860017905731
0.3104438814259156
0.3291821663394855
0.32283171510325304
0.3351647769880607
0.3626906195846601
0.38468145254438246
0.3765934612946362
0.3711675360639735
0.4067900175578465
0.43475933399481803
0.36206031256963905
0.33957189145393224
0.35282831653580077
0.34414027269472125
0.30306559639552044
0.2579609077413174
0.273642348223242
0.27139413022876524
0.2627494260985509
0.23757099760258157
0.2534585155371174
0.2771190203290518
0.27178561153793407
0.3034553718772282
0.4920989033702775
0.8458354125707669
1.0009306980624546
0.6946240201428208
0.29673060021348163
-0.0016366696237111917
0.06228392153563336
0.04480047421525496
0.11766923829848994
0.18093027861902608
0.18077759431573853
0.1635741939892695
0.17181627904802857
0.1769467089916021
0.1534197771760401
0.13711293513488237
0.1536933090449269
0.16229602852936006
-0.0008803648180654283
-0.0010702912946790346
-0.002336694739866971
0.00026969107608503895
-0.0003962036125415003
-0.00043061607090380083
0.001185691952022569
-0.00020573478157569862
-0.0007805052722885054
-0.0003964899109373015
-0.0003324186708922823
0.0010511084564615342
-0.00010221439338673454
0.0012870890295458184
-0.0006179000389778442
-0.00014470429793732726
-0.0008998477828413676
-0.0014967665873167517
0.0033025459734027304
-0.001122210335801173
-0.00012379247921818004
-0.000380047632973344
-0.0010079699109523347
0.00044552223348864287
0.0009777133685199575
0.0009309384645737191
0.0007032313725215873
0.00039371914570879665
0.0011955533898219595
0.0008237489567334892
0.00037504682288469726
-0.0013224959635491763
-0.0004187909498158249
-0.0001354072042337872
-0.001468748451941247
-0.0016371417598735343
0.0012113322173020313
-0.00013262219754493103
0.00025186868759549273
9.671252338326006e-05
0.0004371288087214071
0.00019503215883802472
-5.603150427733949e-05
-0.0012870514231801435
0.0011338598840655168
0.0010577371666981234
0.0011608932450428687
0.0012955876226054788
-6.198740090959e-05
-0.0005585647368325617
0.001526675911398922
-0.001491333667279357
0.002708289244507224
-0.00042470534756953055
-0.001334190919470016
0.000756015697386899
-9.592834854196187e-05
0.00015857584096446434
-0.0015306385797275001
0.0004981907410015353
-0.00025943364303413353
-0.0015546185140033865
-0.0005960310547399691
0.0010130641602134796
-0.0010805211962609095
0.00015775079026487683
0.0009326023555293763
-0.00091311546171055
-0.00017455235169802836
0.000299982005246883
-0.00021522019185172137
0.0005679242801813028
0.0018348626592804792
-0.0008431538011184438
-0.0008285543786635084
0.0001482064557493563
-0.00015948801732130092
-0.0016378307019329504
-0.0002513082202698945
-0.0001224802461865935
0.0003605602097085954
-0.0005400895810775863
-0.000960365522733601
0.00024251155016262918
3.9015863980580694e-05
0.0001613085447004337
-0.0005246761561710317
0.0006637865938592538
True
0.988595673367052
0.9976768482134124
0.6201355651797976
0.17438742658513037
0.06720555582737034
0.08116196391551161
0.08835896639639824
0.10556651231161873
0.10147408592142847
0.08099113628005976
0.071428804707126
0.07621106344733057
0.07734318001236383
0.07357539887554634
0.06900849920966598
0.06977120479206687
0.07338793148991686
0.06318128134623197
0.05996612584088354
0.06473177342741664
0.053694334618384874
0.04477398151111566
0.04206883992097757
0.04685763562391977
0.033508763152976795
0.02485049517759491
0.021144943993159252
0.013848523613258536
0.012881914260341026
-0.0012090215339498047
0.0008124490956409167
0.017288285634246964
0.020694309366889284
0.025921110503098452
0.04199255128046709
0.06716735328406691
0.08761793149719731
0.09794102867335946
0.11483788803614879
0.12584637627328335
0.1381939755314676
0.13639934297452083
0.13571921201096404
0.14699423177508966
0.15456517716222715
0.1422090953550514
0.1323184483618287
0.14960996328428133
0.14444443223474743
0.13074260645487562
0.1288540059869319
0.13908184386005015
0.12536622502106276
0.11822555139112188
0.11697213954416098
0.11777431323269545
0.12503965113599752
0.11325781847523471
0.11413303507034875
0.13032092326558745
0.12613254156276282
0.11714634066148455
0.12192620016000069
0.13861529857154078
0.14769288964722513
0.13812255133703044
0.1450890248647545
0.1612485390261176
0.16717875490151982
0.1734115160894217
0.1841939696109314
0.20975500720615473
0.21769531164629574
0.20946176400839184
0.20965120639538423
0.19484205573954855
0.171448214884512
0.1486055488352999
0.13837384174779863
0.14240052805578973
0.1404621306809845
0.13751596207312788
0.14157121779490006
0.15746716112990658
0.1641840708262743
0.17311258170864763
0.21906403866579
0.3102038344934353
0.4567972788796866
0.64745936712307
0.8435987930153143
0.9537120840360558
0.9791298712163317
0.6325774844173827
0.14775982365020157
0.05109368302734137
0.09957513948597785
0.1100514962138166
0.10152575544406146
0.10266082249566133
0.09282673306660545
0.07762552022465495
0.08432191955058085
0.08847748444981465
0.08573783423283159
0.07228986272793692
0.06349811207125126
0.06948576977733259
0.07323922568172846
-0.001779582215205928
-0.00024455065491500624
0.000810030434978886
-0.0006594260151262627
0.0010961682816951852
0.00035684840442824745
-0.0002949535414523685
-3.233682342444929e-05
0.0010424178585022534
0.0003116679465052949
0.0005383111646177348
-0.0013941612963544437
-0.0005627136625598036
-0.0011195279173972226
-0.0008665560143188022
-0.001547759723156259
-0.0019850653643316697
0.0014650750572917143
0.00033885983257106526
-0.0006529297814567932
-0.00019420157802491956
7.062152200528511e-05
-0.0005506170213363479
-0.0007201775280176088
-9.606529573469179e-05
-0.0008540125259331379
0.00041379632056474057
0.0008921795574011272
0.00038076239866661777
0.0010822688562809816
-0.0007447148081286029
-0.0015502942296686203
-0.00028761893971928455
0.0003236758519028601
-0.0005441982717523085
0.0005076248001760499
0.0007370852602800076
-0.000764279219534862
0.0003265166031919809
0.0007563026494285132
0.0018360306107188889
-0.001548582304687924
0.0017867348991634651
-0.0007681628889249067
-0.0007973270621631949
-0.0005017915264669921
-0.00041512851630475363
-0.003423968213898354
0.00015004575293171165
0.0002989780559659574
0.0010324657491833234
-0.0004394149542107037
0.0008732487365854576
-0.0011036524029849842
0.0008469338986765752
0.0014207290077439907
-0.0005013341445517348
0.0016264758262465925
1.9936847986457505e-05
0.00047676333529497045
0.0016490317941382222
0.001087075091949049
0.0013514589765559757
-0.0006883905277772093
0.0010643380187406858
0.00011054571542106808
0.0012292359696143194
0.0009615669058676845
0.001323603841449133
-0.00014223428226206578
0.0006813550263509201
-0.0013890788945776628
0.0002984173333387456
0.001721646098813843
0.0010970647089815469
0.0015293833461591756
0.00026242251115548345
-0.0014177902331038448
True
1.0020509346744986
0.6804396220042046
0.2669848520008795
0.22112853070358474
0.08357049746328987
0.05006512219120583
0.02784030389330457
0.028906741325028375
0.035606212029790675
0.04454605161681839
0.05851582584884724
0.05875600742840284
0.053086832953093105
0.10159167110629162
0.09770618373018841
0.11554317937697
0.1437338698826242
0.1411910693334809
0.16535784193288136
0.16563491267510866
0.16190293609504935
0.1481466778236076
0.1425809448819031
0.14985962307708978
0.15327677635536405
0.16655901913200596
0.19094188615027258
0.2147954291580681
0.20901686599173458
0.22282705345727616
0.21121255309201542
0.1968271584072733
0.19783833807903056
0.19082408121066827
0.16329919228259063
0.13783565633964004
0.13048589576979722
0.12340051309709972
0.11600045553874032
0.10492975240005853
0.11935156006156813
0.11648238074087255
0.11754375944255359
0.11892646518007699
0.13315804519865498
0.15965827213612138
0.1441321266855593
0.16293144307923765
0.15197363458584556
0.16695047981728467
0.17176005694362795
0.16143264781039698
0.16875400552579753
0.1695513995215085
0.16150349946463638
0.18976435048755463
0.1933115642682737
0.2067745819002765
0.22116709507530244
0.2781641216308415
0.2514913083932706
0.27167728918742456
0.2255506437293343
0.23143943977950135
0.16630945305722414
0.12453371789485247
0.10615879959944144
0.12631058738306727
0.10979116926440526
0.13563086351958142
0.11103168582041445
0.13072279176917068
0.142803941375431
0.14598838071870804
0.18790502289421268
0.42033428280922014
0.7471281768631501
0.9721801254926823
0.8565897996832624
0.2680500792354022
0.21997886786763649
0.06829145644267944
0.0348537597423097
0.020737242343864346
-0.0013681750280962828
0.005904644017614559
0.018540501575722554
0.04967527711754564
0.030107768570867458
0.08103241581957649
0.0966464862239173
0.11241496866773766
-0.0005829256222442252
0.00044624003988275046
-0.0010112284318010468
8.546973346805985e-05
0.0008881386872614899
0.0007273806870356596
-0.0009987558145597001
-0.000329189007829938
0.0003786635227482312
0.0007623231198958776
-0.0019633239812482206
0.0006484375925720663
0.0006173529489979699
-0.0003309599970269816
-0.001133036429369809
-0.00039269085620436577
4.595649404954518e-05
-0.002993276027117755
1.8971878767777927e-07
-0.00019517519890232315
6.90539905053388e-05
0.00185076764474181
0.002541816010062119
0.00018683479878768376
0.0012679302738837933
-0.0009806215486493446
-0.0006971648802407479
4.652369155955031e-05
-8.970728230611631e-05
-0.002148469372259442
-0.000496843366454366
-0.0007912243475484417
-0.0005709360744577131
-0.0012154844687551137
-0.001238761948896274
0.0006441259788982756
-0.001822345682631611
1.1757020387640077e-05
8.410185781675433e-05
-0.0009702960211531217
0.0005375525636950121
0.0009050102711556887
-0.0004922272543781128
0.0009320163357748031
0.0006884027017284023
0.0010553636943252131
-0.00017910811417221065
0.0014521101893152834
-0.00030708218919187004
-0.0018753877475006459
-0.0009541127716871402
0.001767131731234504
-0.0002786480484193553
-0.0026165554535289414
0.0019564600643800097
0.0014064781782747323
-0.0006346622690547683
0.0010676054639465922
0.0011364399372432994
-0.0006154082929751461
-0.00034016367226665493
-0.001360072103007712
0.0005016976393167247
0.00040876347659600493
-0.0009225225883758961
0.0006661315485266775
-0.0004731194374186048
0.0009792341627473864
-0.002222896658951232
4.745186582186872e-05
0.0001529233020679758
-0.0014819430308721645
-0.0009973976989286295
0.0017776600075134858
-0.0007508577953631855
-0.00031996622549089563
-0.0009025486440018685
0.0009780788157302462
0.0013872252984516746
-2.538796985340405e-05
-0.000543958737581172
-0.0002108561333849694
-0.0012631292320974992
-0.0018555133148286565
-0.001662477977869184
-0.0007501576262787331
3.606293072690753e-05
0.00023083711035170893
-0.0014710124007779627
0.0007258758630070631
-0.0011950829719715509
0.0018162608275342626
-0.0003436207191380021
0.002370980698701973
0.0007557136653687699
True
1.00041621811115
0.9305205593897805
0.584046553498079
0.35445434459335745
0.35429718605357285
0.3625816661876292
0.3598308174556732
0.3328244196037789
0.34403874903248816
0.3223778129274395
0.33523090345621676
0.32467907590127293
0.3351345154306895
0.32336374024959136
0.3338916259634858
0.3307983709259807
0.3479523699821744
0.34198820497887483
0.35336295612410035
0.3478527941981797
0.36660644941598997
0.3530648979097107
0.3786071707904786
0.36964450481620625
0.389184924875808
0.3767487735853762
0.40614414576123914
0.4132231674298837
0.44219900732705075
0.4468326062939619
0.4673372502588408
0.47012614220271715
0.49430062279681836
0.5036481001639854
0.5185336845849667
0.5198106662759433
0.5210556423972758
0.4995121146455799
0.4846413529160607
0.44299084482817985
0.4333099162476333
0.4025185264265223
0.3852326133755409
0.3663406222444225
0.3687667783567778
0.34750624365652866
0.3506273334179432
0.34479043630863115
0.36016950756284755
0.3436114870837705
0.3576843130552772
0.33906961170665706
0.3535639330051443
0.34026300079109617
0.35044877926682616
0.34168253358432416
0.35252197467829144
0.33753937961648894
0.3512824010146347
0.32978649775003793
0.34309072549023345
0.3401091357112695
0.3498136682442007
0.33621737457002415
0.35174569813377055
0.3337031000092323
0.3487195039880705
0.33745838701931485
0.3478332908156386
0.33191543043505833
0.3471909373633447
0.33477216584862896
0.342648443069763
0.33625389286258234
0.33512191430763677
0.3321081754286346
0.3312265553754535
0.3335615671796914
0.33831439887388104
0.3315713429498244
0.3354874255677608
0.32344484352900094
0.34080804930830805
0.32730452016982997
0.33958475567984886
0.3274508873705291
0.3413100335606569
0.32524011485977306
0.3372613923628383
0.32547717657934483
0.3389264065785846
0.3291617128846715
0.3345392249080886
0.32383372127238186
0.330165841985089
0.31931494100675245
0.32886518543539944
0.32064398326949295
0.3359470663978631
0.3218171417621331
0.32953402306758056
0.32286596503826437
0.33284374848265935
0.3249459106076962
0.32802141966796877
0.314850132314285
0.340356744742799
0.325441854959237
0.3384025076438045
0.3281258798171105
0.33875855053096954
0.3305657099783348
0.3376614737313023
0.3270528701868493
0.3407150138040801
0.33691182716736545
0.34793902682706174
0.34874992766029916
0.37750531174985474
0.37079032660829137
0.39706873664347037
0.4039404414764372
0.4285877107674249
0.4780744183623491
0.5457970238086401
0.5910936994147131
0.5789389917924708
0.3950536247727824
0.1195778081027814
0.0015668375613682663
0.11410778896695614
0.12650429448014297
0.11070145228610544
0.0962565673147875
0.0973096093283488
0.07846895208695429
0.12494017821403963
0.24516585352051173
0.35087909594507877
0.34589297798119545
0.37337561135182223
0.3775489758166225
0.3959874143320714
0.3872740022721756
0.4079170213534923
0.40644628900725455
0.4331193421227123
0.43889923906775696
0.4664176487653216
0.4617136589312377
0.49917914850778905
0.5091995520848508
0.549094584553859
0.561791327872457
0.00013025520892111383
0.00038042316379863754
0.0003256685168651096
0.0004971026270951497
0.00014910004557545082
-0.0006340236879673747
-0.0011850276891116375
0.0009470508775030253
0.000990387660422256
-0.000680914642648191
0.001361451254818104
-0.0010946649439029712
0.0008230723088727579
0.00029882849826327364
-0.0008117065632051754
-0.00045005341146366626
0.0003780162944359718
7.401793324509068e-05
1.4057439255488925e-05
0.000841519646190506
0.0005777729107845633
-0.0007435824634294363
0.00034388551750677907
-0.001157037480859199
0.0016093754951422908
-0.0004454347736136911
-0.00121211027608044
-0.0012447006908353681
-0.00012632809992512605
0.0016722474894821206
-0.00036101177217311495
0.0014076385792701819
-0.0009242947293935055
True
1.00184678078783
0.586076653786792
0.36382237187715516
0.25493220389703497
0.14370934997878956
0.062124331630386914
0.04836173993775678
0.04048973906731497
0.03376966637545065
-0.00027785909480640403
0.024001811257697136
0.02708330622842556
0.024079179796415433
0.018924384068169053
0.016307355887791402
0.008356220692916125
0.0008740008016005017
0.013418014150952265
0.03498718931900142
0.02143116840016756
-0.00031609592434223526
0.016834437418089834
0.01657186731095948
0.017807764184865467
0.013121186870090614
0.022761623487048924
0.02409403530070316
0.03265784211710577
0.04947467475482571
0.0488736340208612
0.07340230671629985
0.09549162519437765
0.09280308895422353
0.08668556830188529
0.1333392987074106
0.1457359321993818
0.16045510163919613
0.17461516451813588
0.1934411462581301
0.18699318826280323
0.17716077014446338
0.1915077606382318
0.15669947995525454
0.16916295937724352
0.12317784335879288
0.1200986615439491
0.10298521798082481
0.09435299666880988
0.07946116703274696
0.06960058858601775
0.055277155010261085
0.06938804657092731
0.06025803024091153
0.07659061999932751
0.06435276458246443
0.068534506981186
0.06669770106996058
0.07205499706383962
0.04145914409737221
0.04142448691962003
0.05413100361479417
0.06870289113397075
0.05987659087383365
0.044185995833335726
0.06141377593984144
0.0561068484920068
0.06710354263804459
0.07234976626114874
0.07216240811096981
0.09457416773778946
0.06431013772259402
0.07820798843681734
0.07078877997502143
0.07051992479076206
0.06749632199866436
0.08113855995962728
0.08286000755068507
0.07195752609350936
0.05814432556373017
0.05776239047038802
0.05808352163707484
0.08409479724700315
0.060689587778374104
0.0803562009320596
0.07758097899549161
0.06646338600796807
0.05906596011870632
0.07152398569359757
0.06870634495551108
0.07679417494759677
0.06915321845647625
0.0782219302688703
0.08800165869600468
0.10143837350297753
0.09837885951598112
0.11219850910420597
0.11988554609540601
0.15614520027545473
0.1440565402892808
0.13044332231198347
0.13071631813547469
0.1294463118026615
0.12303810610874978
0.0936582089673077
0.07054938604803448
0.08503364318761962
0.06915496316627606
0.07700576558679126
0.06786451928689935
0.0725481729843933
0.059759138202042525
0.06526391770786122
0.04699857461870468
0.029925816314856926
0.19698494263790978
0.6502523671456346
0.9130020707375633
0.5344481802389146
0.35236644471996514
0.23155066415308745
0.14845081797739093
0.08791948349467554
0.05461433840146135
0.057481460405740654
0.054332079452748976
0.0657036743557968
0.058682110787639685
0.055066490371188034
0.045619680547085074
0.051639473345480504
0.056013761070579635
0.08603185852277813
0.03150366094052
0.05035883163344285
0.05045184588998435
0.047854703454365606
0.04903838616758906
0.0445666737286397
0.00026102393122112456
-0.00010611239970997369
0.0015657074504664308
0.0008442855480075286
-0.0002594347824388713
-0.0005306252043013516
0.0009133930665304719
-0.0006481658955555602
0.0003435731126949853
-0.0010261571667498606
-0.0006665803126722181
0.00045970358419453503
-0.0006493766752764054
-0.00022832724238306944
0.0003437501266904233
-0.0007267244315895149
0.001149001651309765
0.001118277959064159
0.00022527428954840985
-0.00026419895432054007
-0.0014303506591625214
0.0004345650666971768
0.0005856952306720395
-0.000302252424610188
0.0015909964247136621
0.0002988410740144696
-0.0014356149739674395
-0.0012939978320240303
0.001919344114967621
0.0011194441034960679
-0.0009327713730918232
-0.00045749036579792685
-0.000980698769245448
0.0016554431448889523
-0.0008091157282322473
0.0005019671492950205
0.0008329716581061846
-0.0012683835031563596
0.00034322216453080675
0.000358028904226733
5.498308031238879e-05
0.0001686508999362531
0.0013708232845557721
-2.3240372379835078e-05
-0.0006509322161203046
-0.0002720391613079518
0.0005194994877734991
-0.0009300874584927143
0.0007469406567235483
True
0.9985007454877666
0.930564683838378
0.5085604479832251
0.16357377872233508
0.09182608332798152
0.1043429325751518
0.0805782378730874
0.06314736033081887
0.059351883232219176
0.0481976722382852
0.057659842726847925
0.05763725229723922
0.06025336417634696
0.059773030786521915
0.06444169494244005
0.06649358280144418
0.06781696634189054
0.06929165427347775
0.08594721055866053
0.09010557195904181
0.11240148896969637
0.10972615089042728
0.12660192709000176
0.14267539093643172
0.16410540946880875
0.17564865280157113
0.20755979916636536
0.22045553594377565
0.2449874503722105
0.24674985833643245
0.28166694609579335
0.2864055514013128
0.3083743691531598
0.2867238582223039
0.26528541221914376
0.2310246626445182
0.19522849740075734
0.15209394270128518
0.12925924431699817
0.09816822290025844
0.08757770950918894
0.05931296532233325
0.0563665338232526
0.05760018637948078
0.05649469233268151
0.053617301849134505
0.04972219086824488
0.046170884159687356
0.06069105759090578
0.05969009995105988
0.06447781361197552
0.05944891444361282
0.07473648635212912
0.06741260188836676
0.07364013190603794
0.06597067715793206
0.06960594645201852
0.06440012440318281
0.0702029096477153
0.04552823472395855
0.05667045193673976
0.04791427388830724
0.05416368364203537
0.03636086287534101
0.04507036266545039
0.028671716171794766
0.032934866045824136
0.027695595657737063
0.026143369779981468
0.018981727069621722
0.027373797926969232
0.026578550737906777
0.030228022580569825
0.03304534795559438
0.034693269570611564
0.028556018161726333
0.03099452937382085
0.03569793071285404
0.030281671509683604
0.040704723867555276
0.044154914371412474
0.03214063275730539
0.03357356497730949
0.03960659088523897
0.03576965223444697
0.03634608070472557
0.039322555349582435
0.03625806456248727
0.038896422425477174
0.03108692219816541
0.04180976467242801
0.03222845544654141
0.04062936174333059
0.029756829951503905
0.039774613257362756
0.03419215090154571
0.04061636449500336
0.03454370558461626
0.03873436875531167
0.06126490444412715
0.08914514728522725
0.09267621590968936
0.09591423757054827
0.10503124133835892
0.10744380143228806
0.08173145367536559
0.08904195974595834
0.05310520076783207
0.05064826647795655
0.03573171258106415
0.03469745057767692
0.020953532121256523
0.0314466676244085
0.031417670963097
0.02556513227804181
0.026532982272335415
0.04254050804899627
0.03687514003856642
0.05544498627030533
0.060881801604056214
0.10713738791349739
0.24747534707130808
0.4714028582017668
0.719415698574285
0.9342321738499323
0.7038849638665979
0.31566087901134565
0.08265806333586578
0.06764075740297644
0.05031629096763605
0.03487865699458326
0.011266674224101362
0.0177830884560514
-0.002434313643262535
0.010934628278360822
0.0011572497415885759
0.005925485502166572
0.0035713350498899174
0.015085238103999303
0.009713295433735192
0.018485587406698117
0.022224800497439943
0.031305410565431846
0.036723960791766624
0.05797548878051096
0.06245433899250435
0.08151953287323116
0.09047750215729809
0.11075220469313911
0.0011260881120136277
-0.0006395762557543086
0.0007239519201083821
-0.0003943804708108872
-0.0009706138088189448
0.0005262711570622323
0.001413685534096465
0.002069776315081096
0.0014898988229822409
0.000241342117132349
0.0005155363811357524
-0.00033297212486101477
0.00019846391814657265
0.0016073648782127616
-0.0011467460554932443
-0.0012555254410898042
-0.0008903686396581785
-0.00021471068683032927
0.0016696565182333003
0.0002046060290935654
0.00025554353960386463
0.00044274316751826163
-0.0005982255909024909
-0.0006354281654042712
0.0010315968063217146
0.0007750697427362482
-0.001695023472046934
-0.0005029170171558854
-0.00023883445909462898
0.0014239119730024093
-0.00044495921395687303
-0.00013486373731733917
-0.0009126831695120687
0.0010331803499912175
-0.0005002390028887966
0.0007767277863313631
0.0011248552991953314
-0.0010214847391796726
True
0.7434618688558731
0.5102751977987487
0.1130739177068129
0.13322475548905485
0.12360671826400076
0.11289301864203896
0.08688852479394328
0.10513623502589281
0.1026060988156614
0.1074622440497909
0.07833646937711365
0.09409729963137275
0.08841728242239823
0.09636614760514675
0.08524890317431653
0.09750336091440943
0.07855056065829674
0.08185772412857266
0.06880044927027168
0.07760277099452313
0.051029473719416
0.07203801715192672
0.06312190699117697
0.07052692363426562
0.05404812693521333
0.0629187021033529
0.04196080857886836
0.05099039932588548
0.04552064211891829
0.039996490091994394
0.02055750030908442
0.0352277191413486
0.016789848839484773
0.031867127380892576
0.006565672393019925
0.014907765605989031
0.0022001070208315997
0.014274325140688146
0.002733122045042134
0.015089932674800497
-0.00027784156472732065
0.03972296867338346
0.033907855920540735
0.06284761725533014
0.043480547570096686
0.07796546967985792
0.07868189193472415
0.10875525797893967
0.08483162774131339
0.12194808924281177
0.11112522257672641
0.14444776415439406
0.14368597336750774
0.15830618968669963
0.14832129295329433
0.16642168579493352
0.16050666445058168
0.18393897168016893
0.1750636122416636
0.1869115050128337
0.18106224227085124
0.20653880455149198
0.1996652953499861
0.21665369174834428
0.20335446254070913
0.2139891185140714
0.21034478127914816
0.23408960858976585
0.22653642226651033
0.2401635573895422
0.2140878696499816
0.24492630903776438
0.23838957358021942
0.24648614530320548
0.24182951779497566
0.26565149469909305
0.2533542496531661
0.26004546527516187
0.24502382881468035
0.2609450718721302
0.26426568041562315
0.2720817971412035
0.24923491962197492
0.27088357110531763
0.2631424478890055
0.2784534598019719
0.2717983800450314
0.2948927466107222
0.2789960345784877
0.2939122632209223
0.2811093054334387
0.2973215998709363
0.28016098869635236
0.31242814586582124
0.30271906152214234
0.3114130279849107
0.2862507621986067
0.3092954164575344
0.297480372527685
0.31881414542309366
0.29258969467803786
0.31173661596182595
0.3011654933449602
0.3237034645815493
0.2962593541034339
0.32246598208209437
0.313725135829387
0.3259115085259044
0.3175458745685512
0.33090661314230946
0.3204880411350046
0.3308956984724603
0.3131793932708206
0.3341345797163487
0.3175009454348131
0.33241847433686533
0.3307224894830231
0.3347197972189712
0.3231562209096418
0.33178215305461384
0.32779853450866814
0.3360393909668961
0.3309879984592286
0.34387371879168793
0.3295432391477174
0.33934134811599975
0.31574960875261227
0.34808254678420975
0.3311219055777771
0.33489413115275823
0.34034881252299565
0.34661156125344783
0.32929326788472496
0.3729078060988162
0.364956074587345
0.39482847968470824
0.37137620044561176
0.6360361077788205
0.9985044859275327
0.9441253471213765
0.45593514112005745
0.4029800807245329
0.3279569951977387
0.33740741168887994
0.31345521582348634
0.3241322648422928
0.30498311203030626
0.3320611667315926
0.3234163585715899
0.34458120892858124
0.32138142261022673
0.34329821167077323
0.32265477345450266
0.34263094130474964
0.33095066532887873
0.34116624440458354
0.3122494070312778
0.32687812844275194
0.30014826629087177
0.3211046628409407
0.3117975909973929
0.3144256815236655
0.2923126813701404
0.30809347592029673
0.0016238117618059406
0.00048217216721982995
-1.4815986208950135e-05
2.9889661701588672e-05
0.0011727335671191208
-0.0018619657010256851
-0.00016062330376415297
0.0004344296156916123
0.0015239337754108424
-0.0009266722844875388
-0.002252789295589131
-0.0012211664840536846
-0.0011822262915852152
0.0008796550029368959
5.7144531033134485e-05
0.0009577550340142106
0.00037440775037914635
-2.4224358875524255e-05
0.0009031362217485178
0.0007084508141310399
-0.0001676054032459504
0.0004543145735942468
0.001153192334682221
True
0.9985046304968839
0.9504777270846073
0.5915665633339044
0.269933793124229
0.1992423901049622
0.2407898503739902
0.17669711229273216
0.17623890860521121
0.15402277695905817
0.1266865968421954
0.10465217681005888
0.08633654215475593
0.05810352883243347
0.06005593229602493
0.043063752561654504
0.04738551543461578
0.040889608515653195
0.05363103760343009
0.03644140089048012
0.041536806363379676
0.02291872212354536
0.044951498938413624
0.028342857553756824
0.021067895390177685
0.024785473150343663
0.01999595180795899
0.0112960877277548
0.0164042478243311
0.0009020889696824075
0.005549088854885753
0.0029544734266425147
0.013504095487719766
0.005353825290284923
0.019834702722910515
0.016027200214974092
0.044958029329082105
0.05071842126654049
0.07108691939918924
0.09250781970053196
0.11147840789581538
0.1210065121984779
0.1270700501324838
0.12451361003488895
0.12929631645250247
0.11176894188657371
0.12699882498264933
0.11854157860944788
0.12205384751629883
0.11577417562019054
0.1248182763527001
0.10954006633041075
0.12093708537959552
0.11152949060394542
0.12709905734978857
0.11709838903712914
0.12299888245634537
0.12019487843558202
0.13266404903440698
0.12464967703138409
0.14364050922275587
0.12637780765702092
0.1408268855532607
0.12322618126745224
0.13127195248659082
0.13274103425652323
0.1356678346977868
0.12209112335590366
0.14049944048755267
0.13085127687997614
0.14622787170618562
0.14895815303308588
0.1577989580084334
0.15954093368738217
0.16943243480310166
0.14196215783019936
0.15223134916116515
0.13576128719465924
0.1420304098760428
0.12323061437988317
0.11766615217228497
0.11996758007709994
0.12798589326923296
0.11291606037940695
0.11654630868260984
0.11400857422778506
0.12550815189832773
0.1177876735858752
0.12349387906237848
0.12524400504383815
0.20567588679267257
0.31806846573571496
0.462749686820695
0.6131637824405369
0.8586519517871325
0.974452774238512
0.7082308276584411
0.3572557545592377
0.28818303571425086
0.26568070379297115
0.23506481632901033
0.17659726398682907
0.1671321585177419
0.1204174209089562
0.10320310302038518
0.07259715895013683
0.06552839992455668
0.04989099641731451
0.055758310682381296
0.040856039256736476
0.04649612634992108
0.029758259492023136
0.0445610476705576
0.03489183459936268
-9.32790673071859e-05
9.043913333725927e-06
-0.0023033377213862167
0.00046696409272242853
-0.0008472949090221801
-0.00032640843954428225
-0.0005250711129762222
-0.00023651365450100026
-0.0009190081490862278
0.0011436483911363793
-0.0002895951517381978
-0.00020803650065394442
0.0016115879036069612
0.0005407928721456315
-0.0009665906590123687
-0.0011503206003884378
-0.000638341188298183
0.00039921840246873923
-0.0018164611269126665
0.0012171908906661707
0.0006851296793694495
-0.0007863303706660243
-0.001033137507561628
-0.0005471833912299867
0.0010620512078869824
-0.0008927192042752951
-8.800910842655662e-05
-6.59359181831225e-05
-0.0007566028046022614
3.7891883969514666e-05
5.1657563239241546e-05
-0.001097577612705299
0.0005238871967904618
-8.155078870624477e-05
0.0017528694243490698
-0.0015431976394420625
-8.109799431555718e-05
-0.0008418515907148501
0.001859213083562299
0.00021641115126669428
0.0010797008302526193
8.744893277473838e-05
0.001047116841054047
-0.0008715421365643219
-0.0003860633452591115
0.0012613037928922665
-0.0004537257547041368
0.0021775365642619175
-2.71468477851988e-05
0.0005730982997279158
0.00011943095879579683
-0.0009144454675605259
-7.347746857569679e-05
-0.0013777464795126956
-0.0003700252919435678
-0.001348672962168397
-0.001375711454488107
0.0005573131186955254
0.00030015489759238303
-0.0006440880338162392
0.0020576155005641223
2.3360554153470476e-05
0.0002585648068219227
0.000915574997382399
0.0011079426007212106
0.000158738266906718
-0.0002980100757076833
0.0014628755216567677
0.0017160276697436127
0.0006113209017843092
0.0018215325153063695
-0.0019037957845682756
0.001021611886232474
0.0017545335838701054
True
0.4680992904353457
0.41601320385101004
0.30134662832582554
0.22215122587676175
0.23950120507082134
0.2789714260729517
0.20844571299255485
0.11540062157627669
0.06088479301006231
0.05571517671140506
0.011552643216136527
0.031117755808717777
0.011476939963097727
0.02291224155196525
4.782624426073403e-05
0.024438352035966917
0.021349648025753294
0.040979947171174085
0.05393596416539156
0.08964895156175288
0.08818256275512588
0.12691278464953884
0.11589679731243338
0.16270127367282194
0.15530836087771432
0.18447909604712606
0.19539564172404825
0.21780712535115782
0.2141470188569031
0.2549016208557809
0.2630752494441278
0.286116724913052
0.30625332326106186
0.334347709502665
0.32212499616471163
0.33566089270610855
0.32593849974759104
0.315763364302438
0.28097475808015
0.24694537462610008
0.20623162605164228
0.18418909460633887
0.13383107124646265
0.12215273416111472
0.0905704460935191
0.07966399348377239
0.06277915412989238
0.07799800102849933
0.046182814151523054
0.05445103045573489
0.0297008111590994
0.0587169241982405
0.040442841490058265
0.05375274514174201
0.033216503883419415
0.042400103458529674
0.02742358493971811
0.03710540522704908
0.03085157264087257
0.04078495419786311
0.022978989076361214
0.04085548489034689
0.037404418060208236
0.04599301651327983
0.03807548148586283
0.04004347239652006
0.03951620999223605
0.05225016763189242
0.0373534076271907
0.05818228823707404
0.04133244342537201
0.04983578912843788
0.03746373284248332
0.055591823106415646
0.037890536544226715
0.05321688222190944
0.03470136445461029
0.053561176001148576
0.0242629373052988
0.04147666322357259
0.024464818060418298
0.05581790335285573
0.03248858214665414
0.03956492601736635
0.026019624412519406
0.037213283839208085
0.02431316125535255
0.034982775802085336
0.012897593154947266
0.02865740770839069
0.010198682812086492
0.040387195860327824
0.03077536291600591
0.04675379708316187
0.026114721553092995
0.036563820343763535
0.022363563386095114
0.04478221977568031
0.03901242348822237
0.039360429602694126
0.024024728820922183
0.040987184121552216
0.03163463059799492
0.047248957011337044
0.03657906810809531
0.04361806907842194
0.03849230038151966
0.050829915281044274
0.0407376760171852
0.05319688532626208
0.03125766900598891
0.03605344781839266
0.028541222451825055
0.0446811997813282
0.034347628510382734
0.04667754880210582
0.03717639477850321
0.05427379032677743
0.03468787273333866
0.05522631627311875
0.03524910772488927
0.053060005358085555
0.04172489264795766
0.06224407299617464
0.05560959594604193
0.07151830790363019
0.05851368820173711
0.0835947773884186
0.06288696954661332
0.08961343629036489
0.09230834024859863
0.10888193891233452
0.10932985102222643
0.12460618211451281
0.09728380666146963
0.10927348463576486
0.08897291953851459
0.09801571074823746
0.0771199243012835
0.07837779738917558
0.061892335169831975
0.07992456176342314
0.06245419310707228
0.09867430024948154
0.07182654384500269
0.08869533348457011
0.08984832766482241
0.11135692246847435
0.12011118737606188
0.1996397317585279
0.30507578634055593
0.5431163682211637
0.7633549279324835
1.000458094976254
0.8984529076471944
0.5339153739341455
0.22637198307143916
0.14358934981219948
0.12964047170191453
0.12692743369227424
0.08028064023048571
0.08625166003644003
0.05846134775997969
0.07916455330250866
0.05426397571598775
0.07962969013212812
0.07250569972131998
0.10112184315286264
0.08240020203656445
0.09712182986856235
0.09062986358973613
0.10788326735750338
0.09968622924192905
0.126539147947429
0.11230324475516658
0.13293953618753107
0.14090785002120426
0.1778885227438639
0.17727096386244623
0.21611318250246067
0.20215005196196545
0.0013608022345570055
-0.00042235244225497957
-0.0002480608638213136
0.002327031864446762
-0.0009467703305882435
-0.0005487800046777995
True
1.000262864168619
0.7371576004816488
0.49977837015399496
0.18224521597187923
0.02342285253099791
-0.0009192395575902235
0.1083046850100826
0.18119447830574434
0.22282874937963973
0.2115468799103246
0.24202636742226868
0.2229587935321436
0.2510774108053771
0.24348264352921362
0.27772739888336273
0.26559790216616586
0.2992140245003101
0.29927977359671704
0.32698926534364137
0.33691923684867653
0.3799406661376301
0.38315650832133236
0.4339631104505886
0.44562736520837326
0.5015919745268685
0.5210224309448545
0.5674382022369492
0.5670225297521241
0.6120283046448711
0.6072611813504596
0.6421224407181815
0.6276920097908172
0.6103965734179041
0.5242820898158527
0.4860144873431282
0.40902456123802805
0.38032366030817844
0.3196986312447962
0.3216399223278882
0.289207359658751
0.29605888516353124
0.2696807987813421
0.28446455111373703
0.25861187409858144
0.27208939322674947
0.2461859793131519
0.27120306632058494
0.25677062636870285
0.26724193036691224
0.26297519171736966
0.274741527700543
0.25101663614835995
0.257289053537099
0.22970986965984103
0.24387178761815337
0.2303162106829532
0.2518517287781605
0.2222231507794344
0.23021285648423717
0.2020028930481945
0.23040380171561534
0.20321368653365018
0.2272299184639269
0.1942727329626758
0.22695383923694337
0.2033746711770471
0.22712954060897128
0.20404918431132268
0.22475093674134272
0.21708914137332408
0.23972585697547583
0.2220142812344153
0.2556698713499515
0.26248723966741505
0.2888627063468629
0.2543349780985278
0.26357931223954195
0.20831000880908226
0.2328175796694014
0.20150575819302832
0.19472152534260226
0.17029277560761205
0.18253217085851786
0.1461485214054304
0.18563724211097518
0.14582293748425468
0.13772442859917755
0.14187327978681757
0.12620977109937256
0.13018381456874928
0.1584713183530478
0.12245799794004927
0.13371943264091857
0.13152655293936802
0.14621210257475226
0.1293658389347992
0.1466904223064377
0.12050784935934461
0.17390554041605485
0.14954034300444682
0.2384339384676642
0.35368865600475335
0.578381783403959
0.5898358695293842
0.44476801868023186
0.47111559496505817
0.7993607287427451
0.9765486832869897
0.8588023510883965
0.614519030784706
0.37861515442171534
0.13406384045706915
0.046778467612624434
0.03394886683145626
0.07735717775823171
0.11226073705287197
0.14151599031769077
0.13942038701958548
0.14605953902166455
0.1423342214787217
0.18364143403493796
0.17822576836937584
0.2087016915634834
0.22200166621845077
0.2459551740792428
0.26212168466313207
0.32774832372899876
0.30424582044044507
0.3606131816082888
0.0004961638567720968
-0.0016474215092057772
0.0006749663834291953
0.00020971349485702793
-0.0009605679436885766
-0.00021213818091805265
-0.00016983086090808762
0.00034431869923001496
0.001252970994803946
-0.0018248066246980311
0.0001844233205067232
-0.0009416162740760678
0.0003734901893375058
0.0015707230076112636
0.001285261056851103
-0.0003771232930193964
-0.0005949713155387969
-0.00032689598556403707
-0.0017644865473189603
-0.0006131665958060349
0.0005840959637478323
0.0015791602824920103
-0.002990549255310286
3.798873529850637e-05
-0.0016093836663185737
-1.4766151726560048e-05
-0.0010513242558176541
0.0008367560888008953
-0.0006144705578698839
0.00033985249243541365
-0.001767252132944413
0.0025316684833128484
-0.0005936634884405165
5.8444938973545847e-05
0.00012657216161166357
-0.0006395251337170432
-0.0006152827541748921
0.0005395256121063666
-0.00021467314791083825
0.0001280234140788411
-0.0009760000215645325
0.0006017314110817563
0.001522686218562418
0.0005037722538149885
0.0007306194594520248
2.656508080644815e-05
-0.0011164609624033214
-0.0023026115814144777
-3.982278414419756e-05
4.156336560714499e-05
-0.0003185950650109314
2.1639129518008075e-05
0.0011950038584430604
0.0007392103762725351
-0.00047043314399502264
6.65288488355122e-05
0.001119501502698555
-0.0012989627425050877
True
1.0018629112555058
0.8931755673583791
0.3590126367061043
0.09634883883702051
0.16440512224855605
0.1304137672430199
0.11671089539811842
0.09145162835714264
0.09634659827804677
0.09336951159957664
0.09312686750212346
0.08183673892548525
0.0888005305736339
0.07828736686321068
0.06674637724968553
0.09980687941958316
0.053146466927223655
0.04460836536514682
0.0383831236291258
0.054063945755706826
0.07576892223810895
0.09658607943172955
0.10456820617075144
0.12967923096576256
0.14275619077459709
0.15116906616192197
0.1754108108688974
0.1730751471236733
0.169882740577331
0.16635159409503286
0.18773996964378462
0.17011278044641967
0.16966456322557902
0.17743294391580858
0.1659427096016157
0.1508809656458827
0.1270495144473289
0.17115633766852723
0.1140972281693416
0.09430443044065952
0.12168795230094824
0.11982629431874062
0.1074683004028234
0.10109992001026628
0.09374612779524925
0.09480874211183556
0.12020363882510757
0.10657413236685946
0.11769139831004313
0.10993724948325403
0.11742312401572323
0.11533914550556107
0.11417822953610504
0.12861640434750007
0.14216347644725985
0.12966447153782762
0.1391011255625664
0.13813942933202236
0.12935675236677288
0.13904917369356445
0.13446434647931377
0.11781848462131726
0.11386730155034018
0.10014424337595992
0.09782561031167647
0.10407091768267378
0.10435185965607605
0.09333358053502366
0.09006066507760604
0.1128411846149787
0.12398994228894354
0.12223374606398052
0.12942670741035156
0.22421324639062698
0.42199809401626864
0.7370936668589438
0.9873621618020072
0.7411016029698625
0.2124658380015165
-0.0007896311933225865
0.08657083803030444
0.06973960303560205
0.06308152539547734
0.04653578890764047
0.050082829619870504
0.03514055066797484
0.048500287238183316
0.03760795508280693
0.05397429883547617
0.04153750241319571
0.043015529277963406
0.051269841758030676
-0.001129837562372732
-0.00042762572395829403
0.00038978186450477567
-0.00011113944111279563
0.0013834152734200772
0.0005700240344269017
5.950318405899313e-05
-0.0008271412219236634
0.0010330510577842582
7.966152759658238e-05
-0.0004914483707347565
0.0010265533186149189
0.00024489398955639916
-0.0008846213679091619
-0.001378838480651955
0.0002898682732665351
-0.0008955058878685218
-0.0007436466688722467
-0.00034872377434609354
0.0018071398212508739
0.0012959840125609432
-0.0004634784604204344
0.0016761576919286391
0.00047291057670187364
-0.00048548377663427744
0.00020163263955269955
0.00022755385458381736
-0.0011017309254845618
-0.0005461045675147484
-0.000326207009099637
-2.8818347813504876e-05
0.000823259630445957
0.0009800185352071313
0.00016061199412783684
0.00013360945517620052
-3.6245637190581416e-05
-0.0013185928654890077
-0.0007615327894076467
0.00033744792341663347
0.0001524929387926161
0.00023248140559679846
0.0004073266958784865
-0.00044320475702840036
9.806661583470142e-05
-0.0002322041308975429
-0.0020188354775564307
-8.55087466288116e-05
-0.0014984535818510147
0.00024066436098719158
-0.00035227396767132903
-0.000750233984092081
0.0002635294435912173
2.9943563831020407e-05
-0.0007830475161985948
0.0013452792860265282
0.0034354860921398463
-0.0008136031999285239
0.0006037104324382388
-0.0009566612661330561
-0.0006583149052370245
0.00046881742863959616
-0.0007331705382042216
-0.0008262616279302866
0.0008948979252286287
-0.0001366849513230811
-0.0005603159360562181
0.0007899561648466778
-0.0012895815897258096
0.00043512708861651706
-9.530350023592293e-05
-0.0003262750146743626
-0.0013173340336210429
-0.0003671188966847621
0.0004263300476573055
-0.00024913558126431944
-0.001433210970896162
0.00025847312268696774
1.4153597819040361e-05
0.0004692390998189628
0.001645010989118554
-0.0013702194411010212
-0.0002929304193120818
0.0006270685006901829
-0.0007532135179788436
-0.00011033466936787994
0.00021187930696235047
-0.0007200461249689004
0.0013709057744135565
0.0004622319417469572
0.0015700042821286517
0.0005858731940808832
0.0012146441759580066
0.0006403874865998432
0.00032598875367265926
-0.00016663511707241108
True
1.002474296633663
0.5940464540482416
0.43999764843588884
0.2556976789601529
0.18540171559952787
0.11791661261937954
0.07490748948218617
0.06767046417722396
0.08680128255663577
0.08061209662398286
0.08696967712191658
0.09392456121731659
0.09660108280618664
0.08684488345269954
0.10984154317883314
0.10262942563301373
0.11313718102666678
0.10779449023705451
0.12697554222024607
0.12254730922802501
0.12726264498441112
0.1274085092679749
0.12965850620163213
0.15091738968517313
0.15801536198148958
0.17034903230227563
0.19636523529450273
0.19297816585630376
0.24110295703634513
0.25201328277112334
0.2778242104093007
0.27367116615806103
0.2974602507915165
0.2834216249076264
0.28305311485183376
0.2563744717982855
0.26778373599677563
0.2350499538823599
0.24611164528318918
0.24623979729099685
0.23337905934868908
0.22527043976244676
0.23205301942906456
0.22025358804379394
0.2318428215806359
0.22106070173891992
0.23411387175621282
0.21638597219818195
0.20647403295927177
0.1973515610645251
0.19441159533009542
0.1861047557660427
0.18189836523298808
0.17926719422563134
0.1768612685844496
0.1682058368507136
0.1835053659403406
0.17326384343288265
0.1780240281439417
0.1621818132736705
0.18119385933453871
0.17622081351473645
0.1834483976466644
0.18666750876710397
0.23440206586013806
0.23439995976943248
0.2567414484620258
0.28637166877771775
0.3349160000671206
0.3228623230577397
0.3030613527386748
0.2868510654611927
0.20352217820371377
0.13844113292789514
0.17407683922731684
0.17209724520177422
0.17718315910788052
0.11419591577446198
0.13960401289622706
0.12416478331265032
0.12351713122140012
0.12327019651232206
0.10454235665802104
0.12405614648245505
0.3361650295120786
0.6902129847473067
0.9520602933797325
0.7931953902341642
0.4593416334842499
0.3837661526060617
0.19988484233414475
0.11618631591961466
0.07327180380400891
-0.00047584860875581725
0.03729981492502713
0.056895164620642494
0.0780187005919821
0.08558941341856659
0.09200205920925902
0.09318770827081188
0.1094560099285538
0.09943904194747503
0.12994278932311562
0.13276160131125925
0.14599942568332755
0.0007541547118758015
0.001321610157827692
-7.208672271488874e-05
0.0006044378847907141
-0.0012380765491903265
0.0009203026929324156
2.754480205441824e-05
0.00030131407585091047
0.0013939308328768847
-0.0006999898050724693
-0.0008181850943099437
-0.0010749069933040846
0.0023147960655621825
-0.00038071831952855297
-0.002062386569745502
0.0018916396709310547
-5.086849992546391e-05
0.0007590131505306181
0.000284644631543081
0.0003021421354378761
-0.00017220660854789914
-0.00025467619767378957
0.0003241592705559395
0.0008991101294308909
-0.00010393340994752246
-0.0009622959953423788
0.0005362046944141906
-0.0019843837559751477
0.0002565259436075256
0.0002305731634305902
0.0011894970377566228
0.002633486128155674
-0.0001330163639290726
-9.263388399057678e-05
-0.0006546305591205659
0.0009024858785459988
-0.00036070584041270954
0.0013969605460288474
0.00036031481145195677
0.0014400971041775394
-0.0007738983547140255
-0.00035078897696824544
-0.001409990968610492
-0.0006922105428286003
0.00025482397320547015
-0.0006063560151756563
-0.001183693784041775
-0.0021942193758342702
0.00037665896004016486
-0.0013338624375224097
-0.0017369278038888846
-0.0005418547672120258
-0.0012803573013092516
-0.0001678673413598308
-0.0007402316676975488
-0.0008518788182471247
-0.0008094969307474585
-0.000493103984235318
0.0014665754456500153
0.0006284564425533138
7.062291418230927e-05
-0.0009988996934181527
-0.0010674593460004269
-0.00037684026327430213
0.0007058822559764565
-2.336277706007277e-05
-0.0005500367779303311
-0.0019113871190729245
0.0007643357165474137
0.0015756071798677408
-0.000834992003491945
0.0017294479987295045
-0.0014187805170291022
0.0024313977555666896
0.0011223097395461697
0.0020959391516591265
-0.000946018281478855
-0.0020960562933639913
0.0014332027977437644
0.0006190791266202489
-0.0004322877730671617
-0.0008352906686214027
True
0.9307454082912068
0.8698140937664002
0.2878817045906191
-0.001422665405313722
0.19960240769794962
0.30367412606956584
0.2809236145736625
0.26873388676735066
0.27198804729025816
0.2731519371073824
0.27573721513062066
0.28447817574864287
0.2803270622747916
0.2696296565454881
0.2804538389590109
0.28301284840677676
0.2864487714095772
0.2764924777258254
0.27906986635540193
0.286354583961784
0.28052291428617465
0.2790258499619226
0.2784395985983128
0.28561860429056235
0.28566359257063995
0.28663549014943834
0.2912433019535257
0.2975213496838668
0.2950346312862521
0.29072807769097403
0.3010217094825721
0.30968190411046564
0.3071932635288781
0.30931623377227674
0.3157553333411326
0.32820984711126805
0.33486367097018904
0.32724577642128677
0.3341979438450441
0.33438385566258105
0.3407374054839236
0.3379106519964931
0.33504406871705195
0.34023525823192735
0.34077672891431376
0.32424366007188404
0.31428750235490177
0.30139273225859
0.288616581020057
0.2724633323684024
0.26333784049328235
0.25870980844343033
0.25289734403126557
0.2407841617769294
0.24066176611580825
0.24271327004874577
0.24344874486560408
0.23829388009684369
0.2400434675662009
0.2525108855256138
0.24748696677055598
0.24751815280586076
0.24903961846244743
0.2633767142238717
0.2599375971821612
0.25853297419336246
0.26239735733554864
0.2656865262675084
0.2665264445254545
0.26220424524365116
0.26466634934764965
0.26709282929722633
0.26110386676552816
0.2623276102695191
0.2567120864878953
0.2637875689983752
0.25350078675651355
0.24795378076391686
0.24852595307845882
0.2539079494860411
0.2483411003772921
0.24604309579412084
0.2463504626909523
0.2512313222913459
0.25046302421263544
0.24485092410244727
0.24662687975821573
0.2549177900543101
0.2513364765763935
0.24325143106611727
0.24035063093381895
0.24826317096299855
0.24779169653726307
0.24596128468848663
0.24109411075288922
0.2498995220310596
0.24965503241992562
0.249198268312837
0.2485712538172575
0.25973903445752294
0.26600250350678667
0.277503583614142
0.2833581773744537
0.2997906721166856
0.29696368466340817
0.28476909791821575
0.29175992196399914
0.2904689572811541
0.27133887535991436
0.25062715121561935
0.24710498823549487
0.25543814629362915
0.2521312622026652
0.24182100295802056
0.23863844636256906
0.24043082960668347
0.24262975333431203
0.23752897539341344
0.24298386969325522
0.25596127909683003
0.26070320709649
0.25984235299100494
0.26773088751690327
0.35879675908379416
0.6654140760085995
1.001361066193626
0.7286140155396899
0.10684826946311443
0.061913052685841324
0.27625301354848547
0.3047259144060684
0.2729153210056893
0.2687617972045322
0.2780660875161834
0.27711331562491714
0.2807753166988597
0.28289837780605304
0.28335810988293814
0.2881822832811874
0.2911390129066106
0.28454965991384756
0.2808401147971268
0.2813566401921145
0.2987188179247285
0.29356496242547736
0.288321525872743
0.2837713105282902
0.2920554517755663
0.29970415184078547
0.29072944041475396
0.000699723075420519
0.0007887552455613368
0.0005343529502380472
-0.0006906078465382738
0.0007316581066643402
-0.001449428620706161
0.002063714657938186
-0.0008498478956746158
-0.0006666059243084096
-0.0017351230222565888
-0.0017791234048008609
0.0013607585611058748
-0.0011257649488686534
0.001132642126895769
8.829367355908508e-05
0.001452812160525955
-0.0010939489859107486
0.000193051213141239
0.00043500364560708656
0.0017851687075779994
0.0016286626116320088
0.000682276163475844
-0.00011094199674737362
0.00020785910275987148
-0.001007640056319229
0.0003485531114555678
-0.0020018096334359563
-0.0016716749327118849
-0.000447799586826873
0.0010654615061480145
4.093298783965616e-05
-0.0002160118482799935
0.0013202605257200024
-0.001324611988393149
0.0001303225277360849
0.0007608673296289556
9.401208088440507e-06
True
0.9673093843161854
0.8367471421115207
0.4404387813693099
0.14369390241371038
0.08805423470362012
0.06064641113104673
0.05439978030857316
0.028760343201009373
0.041076923162255766
0.03312291299188251
0.03334677451267617
0.00632823795923938
0.011391165249518487
0.0041116903645081505
0.02871792934713137
0.014428138804120158
0.02246977651083126
-0.00017640458298745176
0.008503434030900793
-0.0006080465739469275
0.015272692600487248
0.0080767586991007
0.030063532201623357
0.014732475305458431
0.04790061927341023
0.06255927668570066
0.09386172896373118
0.08644772747417219
0.12537735583789478
0.10786969764415391
0.13989751292175692
0.12614993098033309
0.13670561070190068
0.13245405152909143
0.13390255471345858
0.11873287825989712
0.13419694407262456
0.12781986349599414
0.14416944291855457
0.11716358926827307
0.14882648271112825
0.13945495319616522
0.16243217455979647
0.1518888241842176
0.14836294806695385
0.133731116317981
0.15678493070071994
0.14410206605934836
0.17040181177912953
0.14558109707569278
0.15218527498701948
0.137063231313401
0.15717339440912678
0.13973393912374224
0.14746839437716092
0.13361561081940704
0.14545381912541072
0.13743947578400545
0.16087727950752934
0.1353510606204604
0.14844762264776426
0.12274177554889741
0.12669320972410703
0.10936920303262646
0.12411673711172495
0.12304039133984865
0.1321304345320358
0.12818809321601476
0.12222108940146574
0.11552659537040424
0.13628298038952705
0.1221302309540406
0.13224088096734252
0.12965092881816215
0.15213345451008262
0.14506375660880583
0.1790640284995266
0.15893744779099808
0.15983752957403716
0.3027051116364656
0.5847743440901448
0.829180279814919
0.9986907725889149
0.8481828784323028
0.4492965486419981
0.17863811498680843
0.09318493953796944
0.056369292276183376
0.05206464407153647
0.017235240841730167
0.029425251373881828
0.0066114135848230155
0.021767452408472956
0.01758875044328031
0.03671147324563178
0.018216200184224554
0.030536233486817173
0.007165390023519338
0.0005992217259387
0.0015718191626904827
-0.0005272076273154558
-0.0005122901763508089
0.0021766813080322913
-0.0021988141549488076
0.0010681499094458103
-0.0005551914168292537
-0.0018242665622612503
-0.0014029989436531475
8.684083003821068e-05
-0.0022374207997354133
-0.0006005270153680343
0.0003147182454366503
0.0003734987484671608
-0.00068032820605096
-0.001043358068218723
0.00039277513415544906
-0.001930188423994551
0.0003939565919162148
0.00020410513832170074
-4.9112258846523385e-05
0.000575015027764484
-0.000572891882724379
0.001130115405502272
-0.0011946690000320785
6.30661558721544e-05
0.0015450021489606337
-0.0010769720777938129
0.0024091180410607707
0.0013223995474451117
-0.0006560541550418628
-0.0017105506692580241
0.00044034912594525627
-0.0009184596154957976
-0.0016675562697493949
0.0010883129258882714
-0.0019858665230446703
0.0006026474127937006
0.0008694082277985557
0.0010204471626679152
0.0005626863711574507
0.0008485383815932597
0.0007544980673560434
-0.00013208259470779242
-0.0011699972963232976
0.0003263928776529507
7.130163768032407e-05
0.001071931294910217
0.0002172408899652958
-0.00023361487684640743
-3.927134113201319e-05
-0.00041665317365365516
-0.00094847993793722
-0.0023714915234822843
-0.00015519378093570502
0.00015243592051133328
-3.832157284114884e-07
-4.859597301399273e-07
-0.0003040317012642083
-0.00038627474056360684
0.0007930225716216599
-0.0011817152179856084
-0.0015586573263186455
-0.0011031285095426625
-0.00025681611325700847
0.0011471424637346152
-0.0011157093305819842
-0.0010564353189948398
-0.0009608898601032065
-0.0018376810671368417
0.0008393784082082554
-0.0012915317764072656
0.0002674541286638468
-0.0003632773063200923
-0.0008746937732670522
-0.0004506842061532831
-0.0006854627453189259
0.00053692691114542
0.0005874852251994004
0.0008582785132156623
-0.0005518760964707822
-6.493149193019868e-05
-0.000647392320215233
-0.0015199845571576317
0.0006715234372521237
0.000129163208527749
-0.0007477404609116311
-0.0011227188236560869
True
0.9990201096398553
0.4482012588756659
0.2137565281664179
0.13598061493888702
0.11239251791237924
0.06360718746882844
0.06592089079183054
0.05353126775060946
0.058348691537695827
0.05040208671435502
0.06244716971721641
0.047886907977138925
0.05334110692620447
0.05282302380255751
0.05905082550185111
0.052555170082440324
0.05721869398876698
0.06703057592984239
0.06631999616539774
0.0578434186465205
0.07033819872987018
0.0659959790385166
0.07586956100180614
0.07555262891330908
0.08517861522463173
0.08964262669044987
0.11818587791926556
0.12071330718100592
0.14581453262200056
0.15696677590211522
0.17273712843862635
0.18906921998608361
0.20740354992497723
0.20829588778705013
0.22182143755087513
0.21555730147258018
0.2085416939967622
0.19554002999353612
0.17393442313171598
0.15660360488664343
0.15984086264524303
0.13484191502668347
0.12836797780291162
0.12291822855216857
0.11980898389595836
0.11492356446945119
0.11786638937853547
0.10376035079119714
0.1136723183867603
0.10466695339827256
0.11813250756508668
0.11508659279020382
0.11743255528863245
0.12304379705797809
0.11552747220897118
0.11680548727462281
0.12458410282549848
0.12069899731533554
0.11797945614862976
0.1109425103725244
0.11703098996340466
0.1077619743844584
0.11077215061659385
0.11273605697175718
0.10674123529062796
0.10958947501548064
0.10696259723563865
0.10313756579415653
0.11010247791844976
0.09824251481046942
0.09731502282610593
0.10084027067309412
0.09728638823743885
0.08852103768630849
0.086333900467464
0.08254146005676621
0.09657881953573555
0.09566838366822945
0.09451565908707636
0.08472662334780057
0.08623659491050327
0.08675272542748542
0.08505126654453254
0.0946204331427577
0.10779156795134882
0.11042469807610278
0.11489108836041262
0.12888408611708108
0.18698731353050538
0.17990080871304512
0.17126108541641655
0.15827402161589227
0.14510473021023795
0.13491063007399348
0.11679535125411442
0.08430232395183009
0.07797040205085531
0.0700789018802003
0.06084986025101921
0.06799204344042205
0.057475722172576384
0.05481410429367054
0.05664749641877689
0.030410745728890437
0.02789713689605825
0.27315321928288633
0.7484473126797735
0.9426175116405126
0.4075169512359421
0.15426190516151086
0.07400866241445594
0.05089514672283174
0.018660657050263225
0.010152456395158643
0.01059471946922449
0.012585430205774545
0.003713776646900936
0.0007799520345416807
0.01310309720018113
0.002037111593331324
0.005246849701929728
0.009047284415625795
0.010916947205288574
0.012967925915266751
0.010543568056509942
0.006338765901914873
0.016063347627828052
0.01346142957273552
0.015633451009763166
0.0006806886782338641
0.00029344708816442526
0.0009577820563941844
0.002154974732233512
0.0008049185922317957
0.0012751327914326954
0.0019209644183004497
-0.0022603047151858726
0.00020697786026247972
0.00046846564694098017
0.00044672897762306613
0.0009645208880030998
6.837835595354636e-05
-0.0007849950930297523
-0.0010908799058788163
0.0002316362461803281
0.001042420299472965
-0.0005940591605673591
-0.0007303657329296329
-8.898530086875573e-06
-0.0004571962057171069
-0.001975152820908394
0.00010107739791018601
0.0021175996898070574
-0.0008523300328435019
0.00037513568871498084
0.0010404164795641737
0.0008312658885184859
